participantID,seq,exp,clipDurationSec,front_clip_motion_median,front_clip_motion_n,front_clip_motion_frac,e4_eda_mean,e4_eda_std,e4_eda_n,e4_hr_mean,e4_hr_std,e4_hr_n,e4_skt_mean,e4_skt_std,e4_skt_n,e4_bvp_std,e4_bvp_n,e4_ibi_mean,e4_ibi_sdnn,e4_ibi_rmssd,e4_ibi_n,bh3_rr_mean,bh3_rr_sdnn,bh3_rr_rmssd,bh3_rr_n,bh3_hr_mean,bh3_hr_std,bh3_hr_n,bh3_br_mean,bh3_br_std,bh3_br_n,bh3_bb_mean,bh3_bb_std,bh3_bb_n,bh3_rsp_std,bh3_rsp_n,bh3_hr_conf_mean,bh3_hr_conf_std,bh3_hr_conf_n,valence
02-9TZO,1,15,64.819000005722,12.2463352588735,5849,1,1.76014321538462,0.0708630894521978,260,69.7618461538462,1.4871017243153,65,32.1697307692308,0.0126248443311879,260,45.0761867765049,4154,0.840144230769231,0.0331190607202679,0.0317345250181092,65,831.192307692308,39.022823056267,28.2934529621162,78,72.0769230769231,2.964939355976,65,4.84615384615385,0.922475765785497,65,42480,NaN,1,1085.90142459433,1621,100,0,65,6.9
02-9TZO,2,19,64.8389999866486,12.5767140928677,5867,1,1.64064234615385,0.0467522208696298,260,71.6886153846154,0.617681848029077,65,32.1827692307692,0.0193331046076147,260,59.6005652289832,4155,0.844916044776119,0.0534604931839172,0.0494105884401309,67,846.948051948052,44.6812971893563,32.579053651727,77,71.1538461538462,3.39222810825887,65,7.07692307692308,4.38501600733856,65,3395.78947368421,488.78893183361,19,1768.04957308342,1621,100,0,65,7.6
02-9TZO,3,33,60.7490000724792,12.0897318482097,5487,1,1.46215209016393,0.0430177652972442,244,78.1936065573771,2.97082538070196,61,32.156762295082,0.0108756936517351,244,47.844977374754,3893,0.843532986111111,0.0674479095858934,0.0358133764302953,72,853.197183098591,58.5356105822552,33.7541531836137,71,70.9180327868852,5.22906964946032,61,17.6885245901639,0.719744945717055,61,3317.77777777778,505.680154149492,18,1334.61963580912,1519,100,0,61,3.4
02-9TZO,4,40,67.1679999828339,11.0310397689356,6130,1,1.29109653903346,0.0415877149497534,269,77.3717910447761,3.52742928343228,67,32.107843866171,0.0219862102626476,269,51.9364597571334,4305,0.869951923076923,0.0488755779033314,0.0436295076243919,65,870.922077922078,46.5947721920113,38.4428831275425,77,69.2941176470588,3.64490576226647,68,18.9264705882353,2.07555909727625,68,3125.71428571429,959.023312691466,21,1462.88338852178,1679,100,0,68,3.2
02-9TZO,5,28,64.6610000133514,11.2412929268241,5831,1,1.17070349034749,0.0288472396687567,259,70.56484375,1.0300778090313,64,32.0604247104247,0.0176368713775853,259,32.2945911606101,4144,0.891725352112676,0.0468246711705634,0.0483041078000323,71,891.315068493151,39.630192163274,34.8875176659058,73,67.9230769230769,3.65849906172127,65,21,2.30488611432322,65,3215.2380952381,1001.39711926697,21,1911.2759564513,1616,100,0,65,3.8
02-9TZO,6,24,56.3789999485016,11.9215025152966,5095,1,1.08755098672566,0.0181963758712748,226,84.7843859649123,5.64490731846726,57,32.0563716814159,0.0147911052492242,226,28.5588752136666,3613,0.841184701492537,0.0379429543293992,0.0341352694338009,67,846,35.5263453245787,31.7060361330887,67,71.25,2.41397446698857,56,20.6071428571429,2.14627433160198,56,3757.33333333333,880.579895512583,15,1481.74526195632,1409,100,0,56,2.4
02-9TZO,7,21,67.3949999809265,11.537422640324,6032,1,1.03699601481482,0.014607931971723,270,75.1322058823529,4.82185628638308,68,31.9794074074074,0.0310477019476073,270,49.9661384404858,4319,0.870645491803279,0.0307421160313898,0.0365883099785073,61,862.205128205128,35.4662301330925,31.0719734240929,78,69.7794117647059,2.56756803589778,68,20.5441176470588,2.4943747072127,68,3306.66666666667,967.746523286616,21,1993.40921626927,1685,100,0,68,3.5
02-9TZO,8,14,64.2480001449585,10.5868223788259,5821,1,0.989342085603113,0.0206011034896833,257,71.3703125,1.41267051927608,64,31.8267315175097,0.0153671822995895,257,46.0760237347179,4117,0.883254716981132,0.0481208412430372,0.0492678517285086,53,882.671232876712,41.8874334093839,32.7782956644586,73,68.328125,3.05013498270133,64,17.203125,0.405505269767883,64,3294.73684210526,625.844925956126,19,2266.56219309278,1607,99.9375,0.243975018237133,64,6.2
02-9TZO,9,39,64.8789999485016,11.2339672310033,5898,1,0.957042207692307,0.0148622636553305,260,77.8738461538462,3.14107500124743,65,31.8623076923077,0.0130065894519419,260,21.0983095993273,4158,0.863839285714286,0.0799892773452003,0.0365901036550031,63,877.175675675676,55.6452457342483,31.1065336923959,74,69.2769230769231,5.64443224643678,65,21.7230769230769,2.98175541998592,65,2912.72727272727,1014.60844813667,22,1312.98930364862,1622,100,0,65,2
02-9TZO,10,11,64.6229999065399,10.9268458210025,5863,1,0.901113355212354,0.0246180593520475,259,73.2790625,1.3304143270974,64,31.8742471042471,0.0177545916463276,259,26.0374319993269,4141,0.865119485294118,0.044103748073538,0.0372112640425153,68,861.84,47.6328980114896,34.2295510073118,75,69.9538461538462,3.61174632808861,65,20.7076923076923,2.714101352906,65,2721.73913043478,946.839970033878,23,2215.40813899662,1615,99.2769230769231,1.46316963630858,65,6.7
02-9TZO,11,5,65.0280001163483,12.42419438276,5815,0.992320819112628,0.842791596153846,0.0144303984921841,260,78.2803076923077,3.75881088628387,65,31.846923076923,0.0145907440828027,260,34.5527903240441,4167,0.86640625,0.0395938438506372,0.0331144050852879,60,859.44,44.3344902646577,31.2301829057136,75,70,3.06186217847897,65,22.8769230769231,3.47089547301779,65,2761.73913043478,1053.16687866088,23,1727.72691142597,1626,98.4615384615385,2.98473681354887,65,6.8
02-9TZO,12,6,64.9900000095367,11.7050019524591,5815,1,0.914296103846155,0.0198429393311086,260,91.566,12.4715715228675,65,31.8358461538461,0.0152094572989185,260,42.1510685026472,4165,0.854586693548387,0.0498612243635843,0.0343610254754033,62,848.194805194805,49.3497290988776,28.6817840596101,77,70.9230769230769,3.81734402230339,65,18.7846153846154,1.66294456172917,65,2700,977.094183524936,24,2150.7641111531,1625,99.5846153846154,0.899519102290005,65,6.9
02-9TZO,13,18,64.1909999847412,11.7999529165786,5756,0.993098688750863,0.855789712062257,0.0260442081240224,257,70.6518461538462,2.00671209032625,65,31.8041634241245,0.0165412760459877,257,39.2640362508679,4113,0.866727941176471,0.0774567004278937,0.0507752400289748,51,859.293333333333,68.7024082612895,28.6469657843313,75,69.9375,5.49422496231342,64,19.9375,3.06477685041785,64,2545,946.191450431447,24,3338.35009321717,1605,98.96875,2.05456325255032,64,7.5
02-9TZO,14,25,65.4879999160767,10.8062365083662,5921,1,0.87663811026616,0.0216499224494673,263,74.8855384615385,3.27867590974678,65,31.8577566539924,0.0152556366576495,263,27.8898929595433,4196,0.902573529411765,0.0566989267979906,0.0435295619228362,68,908.041095890411,52.735302943665,35.9936336963451,73,66.4615384615385,3.36840523781713,65,23.0307692307692,4.42990275982876,65,3282,787.103952206408,20,1730.27080761301,1637,99.0461538461538,1.87442298813836,65,7.2
02-9TZO,15,38,59.9760000705719,11.0483784632256,5361,1,0.994274458333334,0.0127972121211446,240,76.2658333333333,2.42195277121349,60,31.8566666666666,0.0166345576337595,240,9.98408744813412,3843,0.874730603448276,0.0583527668211379,0.0833504642479625,58,878.367647058824,30.1894042951243,28.6442409100579,68,68.4166666666667,1.933571970466,60,21.2333333333333,3.97179320243865,60,3112,606.713319972109,20,1037.4494474348,1499,99.05,1.83584830066399,60,2.1
02-9TZO,16,4,65.2420001029968,10.5934751673395,5794,0.990766073871409,1.01811603065134,0.0138615741985027,261,75.5962121212121,4.60303637752016,66,31.8349808429118,0.0175767442743759,261,68.7815895439276,4180,0.905381944444444,0.0447552003452141,0.0458817729306982,54,901.232876712329,41.8208881049574,34.7147102985335,73,66.9384615384615,2.7606437376369,65,19.0769230769231,0.594445442925913,65,2763.47826086957,977.708864900963,23,1850.17246809971,1631,99.3538461538461,1.32795389169261,65,7.1
02-9TZO,17,29,65.3340001106262,11.2642726522327,5935,1,1.0816043908046,0.0210957617555443,261,71.5235384615385,1.26462868904428,65,31.8847892720307,0.0132597438717698,261,40.4435049319681,4187,0.883362676056338,0.0373351086381456,0.0398360899499436,71,883.891891891892,34.1918710068206,31.1854813426912,74,68.0923076923077,1.99783536705259,65,20.6153846153846,3.55621071020611,65,3568.88888888889,789.049233451537,18,906.010100004595,1634,99.8923076923077,0.312403831356393,65,3.3
02-9TZO,18,12,64.7639999389648,11.5897464261399,5863,1,1.04469707692308,0.0341464977704352,260,73.8392307692308,2.38458743004706,65,31.913076923077,0.0185099849437953,260,49.0524882053244,4150,0.878771551724138,0.0762275245058289,0.059336032919564,58,870.756756756757,73.5299418671137,39.7767743893584,74,69.3076923076923,5.49978146418984,65,18.7076923076923,3.45381617256132,65,2643.33333333333,729.971212456007,24,2427.5458510821,1619,94.9538461538462,9.51549849132779,65,7
02-9TZO,19,26,62.2249999046326,11.7342630485655,5549,0.993376297887576,1.15100514056225,0.0430786980551799,249,71.3748387096774,1.24916069125447,62,31.9205220883534,0.0138004395257925,249,60.43167879855,3988,0.856831395348837,0.0449674144894254,0.0382732772309872,43,850.712328767123,39.9108309763621,28.3453405930028,73,70.8225806451613,3.31179805330107,62,20.5483870967742,2.62195909332009,62,3263.15789473684,1291.70452689279,19,1741.60366239943,1556,98.1290322580645,3.5180279077344,62,3.6
02-9TZO,20,1,64.5199999809265,10.2943055750608,5819,1,1.61944491860465,0.0419963901689065,258,73.0509230769231,5.64776801131344,65,31.9687596899225,0.0182506436936949,258,44.477705274604,4135,0.947021484375,0.0394320011617316,0.0454051973285487,64,950.573529411765,40.1550413840076,40.2269680093328,68,63.78125,2.90849194546339,64,17.59375,1.00346621489936,64,2854.54545454545,1482.72826805289,22,1499.21754099229,1613,99.640625,0.784111821876414,64,6.6
02-9TZO,21,13,64.0389997959137,11.1186666061497,5724,0.997386304234187,2.2859179688716,0.238111521670238,257,73.5544615384616,2.05257158124969,65,32.0073151750973,0.0202568922315198,257,97.8989956793876,4104,0.8890625,0.0546451498581278,0.0398888879717233,30,888.666666666667,115.021859526849,143.382282284944,72,68.1875,4.73378602798333,64,20.09375,2.65902924164751,64,4057.5,1237.19844810766,16,2972.32399344816,1601,99.234375,1.55064950549403,64,6.4
02-9TZO,22,17,61.9700000286102,12.6279911503322,5598,0.996972395369546,2.73381265461847,0.113335975767496,249,69.0542857142857,2.99587496739709,63,32.0479919678714,0.0175742645346669,249,57.1797533799526,3971,0.96391369047619,0.0528449504367064,0.0681951697246989,42,947.784615384615,52.9417404758796,50.6404297473866,65,63.4032258064516,2.70675946486469,62,16.1451612903226,1.64811640319396,62,2836.19047619048,896.830397513801,21,2343.34158710441,1549,100,0,62,6.7
02-9TZO,23,34,66.7939999103546,10.7067900668386,5859,0.986197609829995,2.96478568539326,0.129014744978775,267,72.4625373134328,4.10439503654447,67,32.1084269662921,0.0125864418405526,267,83.1382021604456,4280,0.907894736842105,0.0481308889571397,0.0397813324121018,57,905.351351351351,43.0388268263343,35.0819002624914,74,66.6119402985075,2.67397799157211,67,19.4776119402985,1.9176864924934,67,3492,1139.68416677604,20,2769.27284426455,1669,100,0,67,2.8
02-9TZO,24,9,64.436999797821,10.2141464571856,5752,1,3.44996119767442,0.160333760672289,258,67.0847692307692,1.47736791678257,65,32.1563565891473,0.0177723601473739,258,55.1306207279077,4129,0.8994140625,0.0524448022140028,0.0420370443209093,64,894.277777777778,45.2825938085975,29.7084423909396,72,67.484375,3.42721223885518,64,17.5625,0.870595490418201,64,2714.78260869565,1095.13332341201,23,1059.5372822107,1611,100,0,64,6.2
02-9TZO,25,27,63.7749998569489,10.5054098590134,5722,1,3.18605315294118,0.127809485101558,255,74.36140625,3.21663773349312,64,32.160431372549,0.0157555825651405,255,50.7421958851331,4087,0.904879385964912,0.0323846335373487,0.0310400312169049,57,900.845070422535,33.4192621476742,26.8689943455809,71,66.84375,2.21981516462055,64,22.53125,4.46492058977714,64,3275.78947368421,627.360571401891,19,2070.35776495655,1594,100,0,64,6.3
02-9TZO,26,31,63.8760001659393,11.5277881221811,5735,1,3.43850367578125,0.11906285059861,256,75.36421875,2.7293692536587,64,32.180234375,0.0193812055210975,256,54.1241281138937,4093,0.909801136363636,0.0469190244285813,0.0506588137146612,44,907.185714285714,42.020799838266,38.5402105091158,70,66.5,2.16758222414115,64,16.03125,0.665922203378428,64,3020,1381.65423353769,20,5059.01777289856,1597,100,0,64,2.9
02-9TZO,27,32,63.9280002117157,10.7337615166662,5756,1,3.6162571796875,0.179882375624868,256,76.9159375,3.78059654264429,64,32.21828125,0.0214424674831207,256,36.4782409200756,4097,0.871961805555556,0.0548610105162407,0.0415886520232704,72,877.767123287671,38.9642002883363,27.266941726404,73,69.015625,3.76488448145891,64,20.4375,2.54405625374562,64,3475.55555555556,1011.08108840007,18,2258.05399342077,1599,100,0,64,4.4
02-9TZO,28,37,63.8710000514984,10.2781026260537,5712,1,3.6856636953125,0.10021794577162,256,75.425625,2.38613180692098,64,32.30109375,0.0275035648313332,256,43.4818382559628,4093,0.8828125,0.0405352335472507,0.0375578257860832,64,885.736111111111,37.6065596074489,28.4513422045329,72,68.1269841269841,2.43291981419952,63,18.3650793650794,1.79875931526281,63,3078,1039.9574890097,20,1068.40761709775,1596,100,0,63,2.4
02-9TZO,29,20,63.9290001392365,9.52826735497481,5595,0.984342012667136,3.6900984375,0.156736540912387,256,80.70875,10.4664839990126,64,32.340078125,0.0172636348500328,256,54.7869909848717,4097,0.936141304347826,0.0567518208756804,0.0902711001803887,46,939.352941176471,43.5296312549339,40.2239996675335,68,64.296875,2.8656680846582,64,16.734375,0.541666666666667,64,3088,1131.56435731108,20,3482.10865560584,1598,100,0,64,7.3
02-9TZO,30,23,65.0889999866486,11.5532141258936,5868,1,3.17905727969349,0.127937971427512,261,79.7953846153846,3.5828546042764,65,32.3269348659003,0.0137208281764373,261,60.7677195045607,4171,0.922719594594595,0.0574035302265459,0.0478061451840777,37,885.958904109589,69.4060993069382,37.9601399131012,73,68.1230769230769,4.86861021079069,65,19.2923076923077,1.7113872016134,65,3134,915.115178255548,20,2668.95054986088,1627,100,0,65,3.2
02-9TZO,31,2,64.2749998569489,10.3385128758854,5711,1,3.15320128404669,0.237081097410552,257,77.1740625,4.51767278154484,64,32.3869649805448,0.0216535834239332,257,40.6713405244691,4119,0.914459745762712,0.0501173807557175,0.0432798786817488,59,910.056338028169,41.6690660610289,29.5852279742055,71,66.2769230769231,3.09993796463984,65,17.4769230769231,1.00168127895822,65,3173.33333333333,1514.32273090426,21,2374.74699681053,1607,100,0,65,6.1
02-9TZO,32,22,66.2420001029968,10.6748074995063,5719,0.970473443068047,3.24831542105263,0.151162931641336,266,79.3875757575758,4.70586575394714,66,32.4490977443609,0.0159933309977106,266,62.1276345958752,4245,0.966206395348837,0.0362339340806243,0.0449764323205578,43,951.7,40.6563362977952,41.1002662285534,70,63.0757575757576,2.11449652898641,66,18.3333333333333,2.48894993820121,66,2691.66666666667,1018.67632213346,24,1121.19794496948,1656,100,0,66,7
02-9TZO,33,10,64.4779999256134,10.9138499579089,5772,1,3.85506802325581,0.192823033237116,258,77.3718461538461,3.74128148679855,65,32.4848837209302,0.0168821172197286,258,51.8862384541071,4132,0.886997767857143,0.0327740672416975,0.0311076302390733,56,880.082191780822,38.3770596351582,27.7843881023539,73,68.6769230769231,3.55803532649908,65,20.5538461538462,3.79156452384257,65,3431.11111111111,1359.96924225119,18,2246.15496123042,1612,100,0,65,3.5
02-9TZO,34,36,64.8159999847412,9.9887057431683,5814,1,4.34278241698842,0.194543664878366,259,70.4165625,3.39415661205296,64,32.4876833976834,0.0125460452106041,259,31.6381050007828,4154,0.933333333333333,0.0335324648745804,0.0384351099918388,60,928.928571428571,32.2626546023042,33.8393476484899,70,64.671875,1.60410868788236,64,17.28125,1.785912687391,64,3450.52631578947,1258.34756585421,19,1630.79745792883,1621,100,0,64,2
02-9TZO,35,30,64.8029999732971,9.61249187198397,5756,1,3.81719350769231,0.184673393552145,260,68.2729230769231,1.40767730130715,65,32.4834615384615,0.0150782534583334,260,43.6699606303372,4152,0.9375,0.0374130937418083,0.0378456294262186,46,937.623188405797,43.3464502411455,35.4201670703869,69,64.2307692307692,2.59668797924172,65,18.4307692307692,0.809498895328747,65,3166,1249.18668277446,20,1439.77764243397,1620,100,0,65,3.3
02-9TZO,36,8,64.6669998168945,10.7766580430101,5720,0.988422325902886,4.0611882972973,0.192195095938352,259,70.61609375,1.54822849836028,64,32.5111196911197,0.019685048193612,259,58.4151965377486,4144,0.948958333333333,0.0492305856981391,0.0510672670802487,45,923.528571428571,63.2404478502992,40.644624579966,70,65.7384615384615,5.02268890596997,65,18.3230769230769,1.69657460331557,65,2932.72727272727,944.831463016814,22,3604.48292596593,1617,100,0,65,7
02-9TZO,37,3,68.5889999866486,11.5540888721871,6174,0.996932020022606,3.43112722545454,0.107786251853508,275,72.0566666666667,5.28660228554127,69,32.5470909090909,0.0156691066259438,275,51.4198363109236,4395,0.9375,0.0454607388750971,0.0602803527713015,44,949.178082191781,44.7025174737749,43.3134569799682,73,63.5294117647059,2.77230755888548,68,19.6029411764706,0.964128341651004,68,2869.5652173913,1342.84460029944,23,2713.81213819353,1714,100,0,68,6.6
02-9TZO,38,7,63.8539998531342,10.4837536650329,5727,1,4.12196474901961,0.135552806877765,255,72.33359375,4.76245647138796,64,32.5623137254902,0.0164741388792905,255,47.9969279990642,4092,0.954483695652174,0.0517516613306577,0.0400737167951486,46,951.588235294118,57.592297187617,37.8279688045842,68,63.5,4.08248290463863,64,21.53125,3.12678520437297,64,3650.52631578947,1410.2382528582,19,1381.51752020548,1597,100,0,64,7.9
04-9U66,1,17,61.9409999847412,13.3616366263019,5593,1,0.127717778225806,0.00678375902410867,248,65.6456451612903,3.40496774061787,62,28.5994354838709,0.19678304467362,248,29.3830488139907,3971,0.953125,0.080855076543021,0.110730685549319,19,913.647058823529,65.2160049731138,56.2820721170698,68,66.0161290322581,3.4616964261778,62,15.5806451612903,1.42055619558406,62,2990,780.485678751918,20,21912.6376154728,1549,100,0,62,4
04-9U66,2,2,64.2220001220703,13.3128862513957,5862,1,0.137491571984436,0.0045229864783431,257,70.0912307692308,2.6688647561348,65,28.8354474708171,0.03104769144347,257,9.84619071620055,4116,1.03267045454545,0.12847740181049,0.111376249258132,22,1025.26984126984,106.92373018082,93.9043782688779,63,60.3692307692308,7.06790552154869,65,20.4923076923077,1.03264037972866,65,2916.36363636364,1020.54395138571,22,13852.2738380997,1606,99.7384615384615,0.619397970737592,65,8.7
04-9U66,3,12,64.731999874115,11.7215571431345,5926,1,0.18179594980695,0.00223882709147734,259,96.5147692307692,9.66169112197955,65,28.8231274131274,0.0401627886786384,259,16.6576684675114,4150,1.06107954545455,0.120674907980877,0.125,33,1076.9,109.83449799199,107.05431854271,60,57.7692307692308,6.83686978532855,65,18.5538461538462,2.45605609432308,65,3290,1159.95462706181,20,17140.7145725327,1618,100,0,65,5.2
04-9U66,4,23,65.135999917984,12.7137720602503,5953,1,0.167763363984674,0.00255134335537294,261,70.1078461538462,5.42292025005546,65,28.6372030651341,0.0469393322667225,261,31.4793015016024,4175,1.01201923076923,0.096351459594682,0.108722009089313,13,1045,111.615264247838,110.336148082895,62,59.4153846153846,7.22602135447887,65,17.9692307692308,1.82832941822267,65,2992.38095238095,1076.48457843995,21,12610.5555766057,1628,100,0,65,1.6
04-9U66,5,30,65.2420001029968,10.8833745805044,5918,1,0.217585601532567,0.0037560804061596,261,76.2998461538462,8.22516517545159,65,28.3876245210728,0.0757050756113981,261,11.5649188693646,4182,1.041875,0.106323129095283,0.101996961239249,50,1069.62295081967,100.367850751527,97.854143158751,61,58.3692307692308,4.63198536931395,65,19.3230769230769,2.43097005012719,65,3308,1530.60565927692,20,13439.9261043769,1631,100,0,65,2.8
04-9U66,6,40,67.0989999771118,12.3743567866113,6265,1,0.159988850746269,0.00194781195982144,268,69.3065671641791,4.69380331418337,67,28.5414925373134,0.0209693002884363,268,10.6039692253644,4301,1.05842391304348,0.098620792478017,0.114189880616573,23,1024.51515151515,99.8377518275361,79.5417645497779,66,59.4626865671642,5.95011677555118,67,17.0746268656716,1.30631836153808,67,3249.09090909091,1437.45446003528,22,14770.1691453265,1678,100,0,67,6.5
04-9U66,7,22,66.2799999713898,11.6333361291829,5990,1,0.15612215037594,0.00142439013627608,266,67.8040298507463,3.65772783407765,67,28.4136842105263,0.0265777232356953,266,27.7464290974503,4249,1.07533482142857,0.100729182055448,0.127187172968003,28,1047.328125,99.618009254638,78.2059754953201,64,57.8059701492537,4.99162573252852,67,16,2.19503572139084,67,3043.63636363636,732.162780850227,22,11606.8112341737,1657,100,0,67,5.5
04-9U66,8,19,64.7330000400543,11.2467337299746,5928,1,0.151696407692308,0.0010078984075494,260,90.7723076923077,8.61641597642814,65,28.4128461538462,0.0302814242889042,260,26.9422390594463,4150,0.985197368421053,0.080092192058909,0.0965299635044304,19,1026.28571428571,76.8132273075473,83.0147674387107,63,60.4461538461538,5.51710626492381,65,19.9538461538462,0.873762861685903,65,2970.90909090909,1125.44132757696,22,10430.0986111762,1619,100,0,65,8.2
04-9U66,9,25,65.4990000724792,11.4673961600627,5976,1,0.15727386259542,0.00107651101870107,262,71.7534848484848,5.75073439923425,66,28.3700763358778,0.0199998537621516,262,13.1590713681144,4199,1.07633928571429,0.0933486682861535,0.105089357110704,35,1048.38709677419,92.6810774962146,70.1532280785144,62,59.0923076923077,7.64387638269001,65,18.3384615384615,2.64738622912371,65,3014.54545454545,899.146300256009,22,13294.5765252139,1638,100,0,65,2.6
04-9U66,10,1,64.7999999523163,11.0804013324856,5934,1,0.15950122007722,0.00113365276811955,259,75.0996875,6.17042664490542,64,28.2744015444015,0.0206279556850672,259,12.7579742619424,4153,0.994664634146341,0.119539407202135,0.107942629799931,41,1024.42857142857,78.3024974441479,81.0850807644701,63,61.1846153846154,7.60528662282919,65,19.2153846153846,1.08242072013825,65,3672.94117647059,1008.68580778334,17,20244.1090124607,1620,100,0,65,7.8
04-9U66,11,3,68.5490000247955,10.3776532161424,6269,1,0.161435131386861,0.00212987044892276,274,64.8976811594203,4.26512710828023,69,28.2,0.023858557568109,274,15.360452614822,4395,1.11421130952381,0.12464164024025,0.108801851950253,42,1106.46774193548,95.2254818049323,90.3787114060044,62,56.768115942029,7.99107025066515,69,18.4347826086957,0.794804098496738,69,3027.82608695652,1156.51104039748,23,11006.3325480208,1714,100,0,69,8.3
04-9U66,12,4,65.5240001678467,10.5182940538816,5887,1,0.150382110687023,0.00100292026054125,262,76.2577272727273,11.4674390938269,66,28.0179389312977,0.0244704077208767,262,12.1661546030271,4201,1.09943181818182,0.100979376189321,0.131790976956478,22,1108.77966101695,89.2532367415806,86.5735684757229,59,54.3636363636364,3.45358838416982,66,17.5151515151515,1.75624095282575,66,3120,977.6448607159,20,9646.52908869789,1638,100,0,66,8.5
04-9U66,13,18,64.7890000343323,11.3427181443409,5873,1,0.157680823076923,0.00199548790819273,260,65.6104615384615,4.36961719961301,65,28.0775384615384,0.0282586382996528,260,38.5262710903664,4154,1.07510080645161,0.154859403369082,0.157753186048122,31,1066.86885245902,117.931261816624,93.223477014466,61,56.9375,6.16666666666667,64,18.03125,1.87691700943794,64,3461.05263157895,1010.37888788119,19,14288.44558355,1620,100,0,64,8.6
04-9U66,14,14,64.2550001144409,11.187528069797,5872,1,0.158131194552529,0.00116583639549637,257,88.10984375,8.17965410301925,64,28.0152140077821,0.0266203949635538,257,28.5412907237207,4119,1.03048780487805,0.103582744720397,0.122484453732913,41,1050.04918032787,96.7227009254649,85.0066664052493,61,58.078125,4.24378046310688,64,16.59375,0.903586329006949,64,3474,1659.23381176532,20,13558.0961302009,1606,100,0,64,8.5
04-9U66,15,11,64.6410000324249,11.2549771125454,5911,1,0.162784413127413,0.00100790163632627,259,74.4075384615385,4.03184744827404,65,27.9971814671815,0.0223296714898996,259,12.2230045050092,4144,1.06215277777778,0.10812438875579,0.0978336456957096,45,1073.2,100.283462651406,75.5402014420024,60,59.15625,9.05401559600481,64,16.703125,1.61028132709193,64,3011.42857142857,934.078614005725,21,10407.3072890424,1616,100,0,64,9
04-9U66,16,28,64.6259999275208,10.9453902912345,5937,1,0.168056182170543,0.00150196917494416,258,80.0792307692308,6.29154450127617,65,27.954496124031,0.0188774973737882,258,10.6616726169664,4143,1.06875,0.0848801488474623,0.0796096183041384,50,1057.04918032787,103.866007629944,90.1873974935892,61,58.5846153846154,5.6510295181838,65,18.3846153846154,1.97398951754679,65,3385.26315789474,1031.69422914744,19,12703.5245170284,1616,100,0,65,2.3
04-9U66,17,5,65.1930000782013,11.8108123680178,5920,1,0.181924053639847,0.00580059946744533,261,68.3772307692308,3.73729535714512,65,27.9106130268199,0.0234604344268263,261,10.4001969535566,4179,1.03199404761905,0.12068349223929,0.102721169772896,42,1024.28125,116.781232014368,87.4004649292054,64,59.9538461538462,6.49141444821247,65,17.2153846153846,1.02305161912027,65,3049.52380952381,917.030404024186,21,11466.7799649423,1630,100,0,65,8.3
04-9U66,18,31,63.8020000457764,11.2160948780636,5839,1,0.1684586484375,0.00119371286388701,256,77.24796875,10.0188232651373,64,27.875,0.024797216795123,256,9.71270157249136,4090,1.0515988372093,0.114288796418157,0.0854116759575701,43,1067.26666666667,96.3972829398842,78.7180120666726,60,57.265625,5.07793917547673,64,18.515625,1.72739079777969,64,3410.52631578947,1302.29487053607,19,13986.3931251225,1595,100,0,64,3.7
04-9U66,19,9,64.4930000305176,10.2695437781707,5939,1,0.172344926356589,0.00164297556719505,258,66.8628125,3.20798332970276,64,27.8160465116279,0.0173953168996924,258,13.4963079578071,4134,1.10546875,0.104306622307129,0.104788598788449,44,1094.77966101695,110.976087482784,87.9473784675265,59,56.3230769230769,5.64332485194813,65,16.8,1.31339255365637,65,3653.33333333333,1246.32164671036,18,12730.7366948329,1612,100,0,65,8.8
04-9U66,20,10,64.4079999923706,NaN,0,0,0.199446744186046,0.00165963704615378,258,75.44265625,5.59349004893898,64,27.9173643410853,0.0350212693538037,258,7.90354491998772,4129,1.06901041666667,0.0869856874710467,0.107015955692258,12,1082.26666666667,109.903789460842,107.989563211969,60,58.0307692307692,7.23483161252136,65,16.3384615384615,1.36103043542525,65,3509.47368421053,915.140995112596,19,12244.9970795978,1610,100,0,65,6.3
04-9U66,21,32,63.8939998149872,NaN,0,0,0.19735304296875,0.00281505606430942,256,67.8825,3.39132787590713,64,27.89609375,0.0304279122375696,256,13.921742966633,4096,1.14296875,0.103554602579801,0.115822644022752,20,1117.15789473684,114.968907205645,113.518327658073,57,56.203125,6.19057062656906,64,15.9375,0.709907215041694,64,3328.42105263158,1225.04087531757,19,15253.8857125712,1597,99.859375,0.393082547169025,64,1.8
04-9U66,22,15,64.7630000114441,NaN,0,0,0.194048633204633,0.00165049422966243,259,74.0113846153846,3.96120242040023,65,27.926833976834,0.0357534549208129,259,9.45705246844401,4151,1.11272321428571,0.107191932378624,0.142952700348881,28,1112.75862068966,118.666022619703,104.077147499242,58,56.078125,6.48148691420785,64,16.875,2.69920623252731,64,3982.5,1008.86404766285,16,18179.9853797339,1619,100,0,64,7.4
04-9U66,23,27,64.1480000019073,NaN,0,0,0.187825089494163,0.00178484131050306,257,68.55953125,5.83005062181935,64,27.9431517509728,0.0421282955736127,257,39.0146200703578,4112,1.15776209677419,0.107298354264905,0.10170262769057,31,1134.15789473684,116.493836359588,100.334529734996,57,54.28125,5.56767527218568,64,15.046875,1.03017470393857,64,3880,1630.46005777511,17,12754.1390082388,1604,100,0,64,6.5
04-9U66,24,29,65.5410001277924,NaN,0,0,0.186977851711027,0.00118693610189746,263,79.8348484848485,6.63320858488078,66,27.8676425855513,0.0161739592609512,263,11.0353823300356,4201,1.08459051724138,0.140966675775473,0.160353482647935,29,1125.53448275862,118.104951174085,103.315731381417,58,54.4923076923077,5.79903838182212,65,15.4,1.7836058981737,65,3922.35294117647,1622.1880648208,17,13429.9777820731,1639,100,0,65,3.9
04-9U66,25,34,66.7769999504089,NaN,0,0,0.178859115671642,0.00254647710195178,268,72.5755223880597,8.05849491240635,67,27.8420149253731,0.0248525193184485,268,6.74809316362776,4281,1.06640625,0.118482428813305,0.142722878239006,24,1091.54098360656,102.54780572502,103.874924789383,61,58.7910447761194,7.49249586896446,67,15.1791044776119,1.42409325893045,67,3163.80952380952,1086.4183181007,21,13578.8335422211,1669,100,0,67,1.9
04-9U66,26,33,60.646999835968,NaN,0,0,0.184691024691358,0.00396472948221646,243,64.1380327868852,3.22399173886045,61,27.84670781893,0.0241693624058976,243,6.08879491699868,3888,1.13671875,0.079984961743528,0.0817347862546352,12,1121.81818181818,113.269441289195,89.3099057174469,55,55.5573770491803,7.43981314766246,61,17.7868852459016,2.83498826628001,61,3411.11111111111,1241.00949841788,18,13102.9248979203,1516,100,0,61,3.5
04-9U66,27,6,64.9049999713898,NaN,0,0,0.187184842307692,0.00115300181419256,260,89.9753846153846,6.58661997843998,65,27.8306153846153,0.0278926194180156,260,5.78409035851993,4161,1.11830357142857,0.121875336672666,0.120882316601361,35,1114.5593220339,105.971413059086,96.1423154889989,59,55.3230769230769,5.7475747393675,65,17.8615384615385,1.21033212225151,65,3496.84210526316,1453.04680903258,19,9328.41342368964,1622,100,0,65,8.9
04-9U66,28,8,64.7979998588562,NaN,0,0,0.193900250965251,0.0020209681890788,259,72.219375,7.44940497783612,64,27.8097683397683,0.0252419378783227,259,8.94707315306099,4154,1.103515625,0.118174062806711,0.143907935451349,24,1112.32203389831,121.33971130928,118.735652490791,59,56.859375,7.63631089254616,64,16.453125,2.759857872462,64,3948.23529411765,1514.2499599394,17,17539.9504566256,1619,100,0,64,8.5
04-9U66,29,20,63.8610000610352,NaN,0,0,0.1911951328125,0.00202478513746024,256,69.81375,6.32888026406136,64,27.741875,0.016698009744031,256,7.89630799431197,4094,1.11024305555556,0.167985077200843,0.175512969292032,18,1135.98214285714,130.573489035719,125.590604744145,56,55.59375,6.29365704877689,64,15.296875,1.47658644842845,64,3776.47058823529,1522.8301824911,17,13122.1020256356,1596,100,0,64,8.6
04-9U66,30,37,63.9850001335144,NaN,0,0,0.1990039375,0.00119253245937654,256,70.9625,2.79574165984116,64,27.7771875,0.0207671497756409,256,7.67782354981,4101,1.08854166666667,0.131216336385847,0.131393416542513,15,1143.41071428571,107.816979061862,100.592698090323,56,55.390625,8.70616856210274,64,15.65625,2.16185362851214,64,3444.21052631579,1517.88711258437,19,10351.7773485054,1599,99.84375,0.407031452316161,64,1.2
04-9U66,31,26,62.481999874115,NaN,0,0,0.204538212,0.00289087855614197,250,73.5120634920635,6.78062304652969,63,27.74392,0.0258166535088021,250,11.1249099789305,4006,1.13133445945946,0.105618750037207,0.103152616251762,37,1091.01754385965,111.877881643346,75.7971918062555,57,55,4.82479932479996,62,16.8064516129032,1.80017038972608,62,3722.22222222222,1201.68291577494,18,11038.8845754592,1562,99.9677419354839,0.178127043949975,62,6.4
04-9U66,32,39,65.0759999752045,NaN,0,0,0.194331734615385,0.00181313955265644,260,81.4349230769231,5.95573308960495,65,27.6713846153846,0.0232745522342498,260,5.75803242969854,4172,1.10875,0.0877507567631186,0.0895886323529665,25,1110.81355932203,90.2285363867336,101.2940410815,59,56.7076923076923,6.83219189966486,65,15.1076923076923,2.054895655221,65,3471.57894736842,1231.12082247526,19,12123.0392535184,1627,100,0,65,2.4
04-9U66,33,36,64.7590000629425,NaN,0,0,0.205510196911197,0.00134034587540935,259,67.9830769230769,3.53559353356907,65,27.7055984555985,0.019705411780004,259,4.55264659227609,4151,1.09730113636364,0.0705282434464888,0.0883883476483184,22,1118.6724137931,105.903363419417,112.424009422974,58,55.9538461538462,6.13247189463283,65,16.6307692307692,1.52652823804162,65,3431.57894736842,1047.1191333999,19,12369.3433673569,1619,99.9692307692308,0.174035805334596,65,3.6
04-9U66,34,21,67.3839998245239,NaN,0,0,0.208904985185185,0.00133810388228257,270,65.1682352941176,5.98259888147669,68,27.7046666666667,0.0247154813545551,270,8.42601092324166,4320,1.10830965909091,0.0959289969098859,0.101317627429322,44,1098.22950819672,92.4006481655879,89.5938986017835,61,55.3676470588235,4.31209479780015,68,17.2647058823529,0.704307579069706,68,3228,1115.94000970624,20,10913.1441114799,1685,99.8382352941177,0.44420964922779,68,2.5
04-9U66,35,24,56.3500001430511,NaN,0,0,0.199269305309734,0.00127246477870248,226,63.8382142857143,3.17768761388349,56,27.6710619469027,0.0152818167540336,226,7.45976967345728,3613,0.9833984375,0.268911576307893,0.21964104238507,16,1133,138.005175886372,119.758004291307,50,54.9285714285714,6.64381364430549,56,17.75,1.25408423669516,56,3667.5,1196.50323860824,16,12703.528718563,1408,100,0,56,3.8
04-9U66,36,13,64.2669999599457,NaN,0,0,0.204219311284047,0.00141376317563666,257,85.763125,6.83631708957435,64,27.6119455252918,0.0192259628085146,257,4.84978197785412,4120,1.08041158536585,0.102850070050043,0.101592543633256,41,1104.08474576271,99.5924952399723,96.3716763369819,59,55.75,5.50324579550235,64,16.265625,1.85371516707258,64,3780,1174.73401244707,18,10469.7248683647,1607,99.484375,1.08367668551564,64,7.6
04-9U66,37,38,59.9190001487732,NaN,0,0,0.199619241666667,0.00193613956798277,240,101.563833333333,7.77393909960027,60,27.55,0.0202081221501851,240,8.81665319304086,3841,1.16889880952381,0.140070002694231,0.127034228901112,21,1105.55555555556,135.050188667471,107.626450420836,54,55.8666666666667,6.06033692263221,60,15.9333333333333,1.30015209888151,60,3348.88888888889,1087.58171505782,18,14067.6668961794,1498,100,0,60,1.4
04-9U66,38,7,64.0910000801086,NaN,0,0,0.204249190661479,0.00126111298756791,257,101.438615384615,10.3299748724469,65,27.565953307393,0.0257839157476908,257,7.67770699047762,4109,1.11053240740741,0.0726347189362155,0.0636905831706335,27,1086.66101694915,97.059102181039,86.7054069029544,59,56.28125,5.44370540821494,64,17.28125,1.31497781983829,64,3355.78947368421,973.506353283347,19,12799.7377427396,1602,99.765625,0.556125699505781,64,6.5
05-9U8B,1,27,63.6930000782013,9.18376657871342,5864,1,1.15331314901961,0.0663160045898809,255,91.064375,0.931961364074169,64,33.3534901960784,0.0177464342087838,255,6.36025668909856,4082,0.64015625,0.0182399859667759,0.0192970491215103,100,640.63,15.8520017535944,13.2188264886628,100,93.78125,1.63754316555247,64,16.90625,0.849252706048181,64,3070.47619047619,525.799164990552,21,4763.89334816554,1592,100,0,64,5.3
05-9U8B,2,5,64.8469998836517,10.325297318038,5951,0.991007493755204,0.963866888461538,0.0169336196758779,260,86.9318461538462,1.29885272970477,65,33.3613461538461,0.0224922849195638,260,15.1089962226288,4157,0.576967592592593,0.0957249828773351,0.0546445573157178,27,625.660194174757,16.6082624122478,10.7662326143309,103,96.4307692307692,3.54422607370614,65,19.4307692307692,0.49903753519997,65,3053.33333333333,391.169187607272,21,9181.45462758234,1622,100,0,65,8
05-9U8B,3,22,66.3889999389648,9.20055408236862,6090,1,1.00864066415094,0.0194739126024961,265,88.8470149253731,2.06530577010192,67,33.5096226415094,0.0205936758598415,265,6.66699630296571,4255,0.643284574468085,0.0317201112611404,0.0362296012312631,94,641.553398058252,21.532796761666,14.6852600503055,103,94,2.1411714981793,66,19.9393939393939,0.720657560390037,66,2800,338.795821543968,24,5261.93502468627,1660,100,0,66,6.9
05-9U8B,4,11,64.4500000476837,10.2363442913373,5928,1,1.05244347286822,0.0267896313212417,258,104.7440625,5.24296405890941,64,33.5603875968992,0.0179234472771303,258,18.347307366557,4131,0.617476851851852,0.0705951012021828,0.0821099096310268,27,616.701923076923,13.5308922399655,7.86845736845688,104,97.6615384615385,2.48920747350514,65,21.8769230769231,0.760503375808013,65,2817.39130434783,360.16684758979,23,4053.06292486021,1612,100,0,65,6.9
05-9U8B,5,6,65.0930001735687,8.83233806486384,5998,1,1.19996498461538,0.0627488301658999,260,101.262153846154,1.16977761282285,65,33.6608846153846,0.0169369189010054,260,7.6559288851547,4172,0.59375,0.0423127000241456,0.037737960276535,31,602.648148148148,22.588689095281,7.4073719279178,108,99.8,3.83324275255299,65,22.4461538461538,0.500960615679056,65,2696,607.837697635369,25,3859.40725724731,1627,100,0,65,6.1
05-9U8B,6,7,64.1519999504089,9.4878250157458,5849,1,1.26637561478599,0.0534490826793238,257,78.20015625,3.06245802935283,64,33.7332684824903,0.0129383264694009,257,10.204018408757,4112,0.600765306122449,0.0516316243268939,0.0512299884711094,49,617.259615384615,13.6999717895732,8.23089137430048,104,97.28125,1.88955987148767,64,23.515625,0.712522625650226,64,2874.78260869565,322.558938451105,23,4244.00573919425,1604,100,0,64,4.1
05-9U8B,7,19,65.1399998664856,9.28581037652829,5978,1,1.01885992720307,0.0364486562276105,261,96.7944615384615,0.90673354473839,65,33.7657088122605,0.0196110123823524,261,7.24116536622258,4175,0.628982843137255,0.0319904748703516,0.0319007127896094,102,627.836538461538,20.9928839431588,14.4923816611899,104,96.1692307692308,2.50355516446881,65,18.8307692307692,1.87557683434683,65,3061.81818181818,429.347637631085,22,4173.41360007365,1628,100,0,65,7
05-9U8B,8,24,56.3450000286102,8.63622103269075,5175,1,1.00852110619469,0.0302316392005647,226,87.0730357142857,1.82223032137978,56,33.766814159292,0.0129453886582171,226,9.12206083583218,3612,0.6181640625,0.0260059398747702,0.0258731104187714,32,615.065217391304,21.8309208817592,11.13552872566,92,97.8928571428571,3.09062259940421,56,21.1428571428571,0.698793022512166,56,3208.88888888889,271.138967817761,18,3755.59098672116,1408,100,0,56,4.1
05-9U8B,9,26,62.1180000305176,11.7677525466845,5639,0.987565674255692,1.27003475,0.046086962125722,248,91.478064516129,0.858104733394679,62,33.7632258064516,0.0150329401929564,248,5.40041154380492,3981,0.621410472972973,0.0325651449328766,0.0198655045379659,74,627.929292929293,22.983247015435,9.7158612167771,99,96.1746031746032,4.42332411326115,63,19.6349206349206,0.866985643769732,63,3009.52380952381,326.166770080525,21,3699.39274242584,1553,100,0,63,4.8
05-9U8B,10,2,64.0970001220703,12.5921544201608,5809,0.98591310251188,1.13466159922179,0.115686736964693,257,100.84828125,1.01046673906367,64,33.7587937743191,0.0157775144141764,257,6.97015378278725,4108,0.618489583333333,0.0364424990944395,0.0441941738241592,48,626.754901960784,21.2418586731784,9.59733874004086,102,95.96875,3.2560992828356,64,21.265625,0.801629045746302,64,3324.21052631579,477.008220165296,19,4015.05443298197,1603,100,0,64,5
05-9U8B,11,28,64.9359998703003,11.3581446161093,6002,0.999666888740839,0.991748484615385,0.0349926760621159,260,92.0383076923077,2.48305857841618,65,33.7561538461538,0.0152904752639898,260,5.95651145998545,4162,0.606994047619048,0.0327022064879482,0.0266701016292301,105,607.448598130841,29.784519736614,17.0202432193339,107,99.375,2.31283513230112,64,18.921875,1.11703529807382,64,2862.60869565217,872.765809425854,23,3844.65739868575,1623,100,0,64,4.4
05-9U8B,12,15,64.9630000591278,9.4316114274098,5893,0.989588581024349,1.57698245,0.14425287760173,260,83.8818461538462,4.61882726332795,65,33.7900769230769,0.0178797421593592,260,23.8809581926222,4164,0.640046296296296,0.0375396511778155,0.0404386145263574,54,641.584158415842,19.3433540663106,12.2282459903291,101,93.4615384615385,2.27813604645417,65,20.8153846153846,0.527147622004136,65,2918.18181818182,810.453349696719,22,5378.16472651723,1624,100,0,65,6.7
05-9U8B,13,9,64.3140001296997,9.62464156679699,5952,1,1.33932127131783,0.150102955041863,258,99.3884375,2.97844756556056,64,33.7120930232558,0.017760815463306,258,4.93408080624382,4122,0.638352272727273,0.0327225649409262,0.0401188194732338,55,640.56,22.1310696177171,12.9661564128007,100,93.828125,2.75770025823796,64,19.8125,0.794325110362489,64,2834.54545454545,346.145128835363,22,3747.02621692946,1608,100,0,64,7
05-9U8B,14,4,65.4019999504089,10.6019790967325,5944,0.99597855227882,1.18379577099237,0.120566491364092,262,86.9732307692308,2.73048250526138,65,33.6912977099237,0.0191143743052271,262,14.2027141022458,4192,0.649390243902439,0.0338517236454355,0.0276690580738007,82,642.882352941176,36.7348794562644,21.7401394514004,102,94.3484848484848,4.73446422683196,66,20.3333333333333,1.10011654394269,66,2929.09090909091,269.583613514109,22,5930.0962432826,1635,100,0,66,6
05-9U8B,15,20,64.0880000591278,10.7892829905875,5929,0.997980138023902,1.07256320622568,0.0681118295318806,257,91.251875,0.70670456996283,64,33.778326848249,0.0204806067517126,257,18.6640469260308,4108,0.638521634615385,0.024369509451425,0.020171788261497,52,634.178217821782,22.5988477757624,11.2378823627942,101,95.078125,3.73870653933972,64,22.03125,1.43614066163451,64,3336.84210526316,743.722264704738,19,3467.84489973275,1602,100,0,64,7.2
05-9U8B,16,21,67.375,10.4269635382239,5945,0.957943925233645,1.01517959479554,0.108074736433554,269,89.6580597014925,0.620503800212938,67,33.7654646840149,0.0148206837236969,269,15.7055895323768,4319,0.665848214285714,0.0490001982252402,0.0370041951940117,70,657.601941747573,53.7485685729735,25.1748785459617,103,92.4179104477612,5.81312322493017,67,19.4029850746269,0.970156211922304,67,2916.66666666667,871.892826813752,24,4240.30478296066,1684,100,0,67,3.4
05-9U8B,17,12,64.6319999694824,9.50896375349762,5810,0.987088005436629,1.28653475289575,0.0797239246837812,259,92.2909230769231,0.858238972906373,65,33.8234362934363,0.0163822671715793,259,32.5106137771164,4143,0.62109375,0.0530636901122918,0.0729538595620547,16,636.861386138614,30.1400164906957,13.5270100169993,101,94.6461538461539,4.66848064561282,65,22.0461538461538,0.758921299254105,65,2765.21739130435,314.799641405846,23,4274.6859067349,1616,100,0,65,7.6
05-9U8B,18,14,64.4089999198914,10.6714021324452,5944,1,1.1342701627907,0.0558075871841089,258,91.464,1.65346492251877,65,33.8378294573643,0.0178607340693001,258,22.6683983752333,4128,0.645089285714286,0.0301414890825171,0.033190512758846,42,641.217821782178,22.8593980499907,13.8068823417888,101,94.1076923076923,3.70018190821021,65,24.0923076923077,1.38882905854038,65,3124,330.84262437791,20,4022.48285453615,1610,100,0,65,7.8
05-9U8B,19,13,63.8789999485016,10.4412079511246,5828,1,1.28365930078125,0.132966417828106,256,94.79609375,1.15669701783632,64,33.820390625,0.0154362620564208,256,30.616456416931,4094,0.645692567567568,0.0345587838894675,0.0304809893508324,37,654.257731958763,40.0807202068826,29.2040236953746,97,93.078125,4.34724757840366,64,20.09375,1.73405433722373,64,3100,2081.0321325828,20,3847.81925229578,1597,100,0,64,5.8
05-9U8B,20,40,66.9960000514984,10.1069962176206,6146,0.993533785968316,1.55025848134328,0.115172816882262,268,88.1308955223881,1.45358879949247,67,33.825,0.0158291439361961,268,25.1406399809862,4295,0.670170454545455,0.0320602041777527,0.0268957176819959,55,669.24,39.133317846262,23.1638869053891,100,90.7164179104478,4.25621104138003,67,19.2089552238806,1.43058912883486,67,3067.27272727273,981.845598462803,22,4352.31932409087,1675,100,0,67,3.2
05-9U8B,21,8,64.4820001125336,11.461427210917,5876,0.984584450402145,1.54206324418605,0.214855259950768,258,98.77875,5.14835325806624,64,33.8489147286821,0.0172525443937507,258,31.135022046932,4133,0.685614224137931,0.0391668109680252,0.0315229309461953,58,682.052631578947,44.4669057961786,29.2371084520733,95,88.546875,3.69009694671976,64,20.5625,1.33184440675686,64,3009.09090909091,552.732683956196,22,4943.17756336349,1612,100,0,64,5
05-9U8B,22,29,65.1659998893738,10.7473298097349,5791,0.966939388879613,1.17787035632184,0.0452572123708927,261,95.3386153846154,1.40127718185397,65,33.8624904214559,0.0203886493736873,261,33.6416497947389,4177,0.672487745098039,0.040136581310741,0.0420425751471053,51,659.424242424242,33.6361354853617,14.2671307699959,99,91.3230769230769,4.73717905346794,65,20.7230769230769,1.05338282908703,65,3316,713.526453609115,20,5244.69958301591,1629,100,0,65,4.2
05-9U8B,23,23,64.9060001373291,9.82906853100239,5764,0.968088679879073,1.31126005,0.103800440879215,260,84.6641538461539,2.34455812221867,65,33.8215384615384,0.0171056918189438,260,22.7403029921969,4161,0.670758928571429,0.0348190022446604,0.0333319179953146,70,657.434343434343,35.1812106671061,15.4183166978733,99,91.9692307692308,5.55644116872828,65,21.5846153846154,2.26999661131567,65,2853.91304347826,210.145817998204,23,5485.59193621977,1623,100,0,65,3.3
05-9U8B,24,30,64.6829998493195,10.5435604287237,5786,0.984683458134786,1.38134108880309,0.0993574245976521,259,92.92203125,2.64770411458173,64,33.83,0.0118124884643724,259,11.9267988453674,4146,0.679779411764706,0.0282840584770923,0.0354341693446151,85,671.802083333333,28.0066231984946,16.9587735405601,96,89.9384615384615,4.56507435275197,65,23.1076923076923,1.27626257245371,65,3026.66666666667,740.954339573859,21,4395.58810979485,1617,100,0,65,3
05-9U8B,25,34,66.6349999904633,11.2226660735474,6054,1,1.38751520599251,0.0975432903760671,267,78.0419402985075,3.48841686711981,67,33.8388014981273,0.0154647889411812,267,17.4035787834535,4271,0.654551630434783,0.0341101318453159,0.0447431908227386,46,641.432692307692,30.8679506470242,19.1802892351922,104,93.8636363636364,3.51649459913339,66,22.4242424242424,2.51800046471925,66,2846.66666666667,280.785647265214,24,3914.17817962093,1666,100,0,66,5.7
05-9U8B,26,37,63.6849999427795,10.6181863966,5855,1,1.55353476470588,0.139899256839413,255,92.9442857142857,1.31118724123095,63,33.8511372549019,0.021145371980985,255,25.3657378473111,4082,0.663915094339623,0.0313434063040527,0.0415098712483873,53,658.948453608247,30.6337134318618,14.3170935132333,97,91.6875,5.01703447473056,64,23.0625,1.65111794738912,64,2663.33333333333,209.319117028577,24,4282.82045580288,1592,100,0,64,2.3
05-9U8B,27,25,65.319000005722,10.8068061338815,5782,0.959668049792531,1.34872848854962,0.128499541690097,262,94.0268181818182,1.88488331333669,66,33.7866412213741,0.0950548193277426,262,22.9993469066917,4186,0.696153846153846,0.0308854183557097,0.0276903259350739,65,694.212765957447,38.3963126423004,28.5080633754619,94,87.3384615384615,3.77606327358982,65,21.1692307692308,1.31777784984362,65,2942.60869565217,652.472342787621,23,6912.48844297855,1633,100,0,65,5
05-9U8B,28,33,60.7760000228882,9.57914401186243,5405,0.975279682425117,1.1076581399177,0.0812481710169538,243,92.1073770491803,1.8705800362805,61,33.7811111111111,0.0166639116180208,243,22.8972106523507,3895,0.678409090909091,0.0268437097620258,0.0190181443578183,55,668.868131868132,28.7654147240933,13.8992405867691,91,90.327868852459,3.39470819303324,61,23.344262295082,1.09369779344569,61,2927.61904761905,590.541317452935,21,5577.10224470727,1520,100,0,61,4
05-9U8B,29,38,59.8480000495911,10.2129483319523,5320,0.983364140480592,1.106590025,0.103752770649335,240,88.75,1.29067713144191,60,33.8261666666666,0.0143000326730077,240,27.1153908625096,3836,0.699314024390244,0.0385561696784625,0.0334207025565741,41,689.390804597701,53.3756665056886,40.5484206672054,87,88.5333333333333,4.96928418494399,60,22.3,1.47636750741445,60,2752.72727272727,875.541638172143,22,7173.220625227,1496,100,0,60,2.1
05-9U8B,30,1,64.6789999008179,10.8555398337463,5628,0.956654767975523,0.987256714285714,0.0615717984754339,259,91.1209375,1.20662420176529,64,33.7997297297297,0.0208242070938954,259,26.1334933428259,4145,0.674242424242424,0.0195785412314578,0.0199180449749718,33,660.142857142857,24.6091090334998,13.0336598336689,98,91,3.32379587935527,64,23.234375,0.426956281914983,64,2691.66666666667,149.424014910201,24,5334.64640119046,1617,100,0,64,7.6
05-9U8B,31,39,64.7569999694824,9.64064103092025,5926,1,0.995648607692308,0.0620768674612304,260,84.81,1.80434891304315,65,33.8090769230769,0.0185766139296314,260,34.9071839892007,4151,0.670170454545455,0.0245534347803273,0.0225025718694717,55,661.887755102041,28.4082471882822,16.5958633524252,98,91.28125,3.9419145698747,64,21.296875,0.986893273527251,64,2831.30434782609,335.955954199439,23,3449.95298884656,1619,100,0,64,2
05-9U8B,32,31,64.0089998245239,10.7597288397934,5869,1,0.902902515625,0.0517280117755432,256,84.76921875,2.68813105824651,64,33.7890625,0.0163988282699541,256,27.5638385954814,4103,0.695673076923077,0.0341777557833251,0.0326236193134572,65,690.698924731183,49.3527200576837,28.6225435627234,93,87.953125,5.66086450153701,64,21.84375,0.596783707594966,64,3051.42857142857,336.842481202798,21,3524.82054392589,1600,100,0,64,4.6
05-9U8B,33,17,61.7829999923706,10.64032286109,5587,0.98172553154103,0.918305582995951,0.0407276775446263,247,83.9482258064516,1.06395569394001,62,33.803927125506,0.0172134717825712,247,23.8513033293266,3960,0.727834302325581,0.038610865044721,0.0361648476473653,43,705.988636363636,53.6728048859571,26.1380068539828,88,86.0161290322581,6.91989750583594,62,22.4193548387097,2.12362501009495,62,3221.05263157895,983.360986824959,19,4130.98280653564,1545,100,0,62,5
05-9U8B,34,36,65.0220000743866,9.89866301132455,5549,0.932135057953973,0.896260611538462,0.0385064251109519,260,75.9433846153846,5.80512173562145,65,33.7794615384615,0.0158570612487426,260,28.6809549144302,4168,0.671875,0.0464619963546893,0.0446281695763656,20,671.690721649485,67.6220133081587,37.3766025297467,97,92,5.9459100358016,66,20.6060606060606,1.05069629482677,66,3054.54545454545,914.688223087269,22,5748.73570008003,1626,100,0,66,3.8
05-9U8B,35,10,64.3179998397827,10.5609899998059,5698,0.969542283477965,0.871482420233463,0.0707125631812244,257,84.29796875,1.6105842178593,64,33.8074319066148,0.014830429334353,257,24.4238623492802,4123,0.685096153846154,0.0553633591003151,0.0413398642353842,39,674.197916666667,48.5003786836365,25.5909112155489,96,90.140625,5.44778151293702,64,23.0625,0.663683803084112,64,2849.09090909091,247.172757994024,22,9140.20961450286,1608,100,0,64,4.2
05-9U8B,36,32,63.7249999046326,10.9075257344211,5875,1,0.817546996078431,0.0403018877909675,255,93.251875,2.4221077499527,64,33.8218431372549,0.0151934669821533,255,18.5891927609126,4084,0.62109375,0.0949360736122822,0.105973905986332,4,668.378947368421,36.0968493195053,17.4709485304374,95,90.421875,5.08594292891598,64,20.625,0.487950036474267,64,3398,1216.75841999617,20,3313.28606502526,1593,100,0,64,3.6
05-9U8B,37,18,64.0260000228882,10.0954853038366,5846,0.989505754908598,1.02353273540856,0.0456297743317073,257,71.66109375,4.18612944581306,64,33.8420233463035,0.016315715669899,257,28.7890176427941,4104,0.716346153846154,0.0157447335517431,0.0202523146825246,26,698.597826086957,52.3548878418859,30.4562377450403,92,86.890625,4.90259791027586,64,21.96875,1.92699082789557,64,2680,275.870164798745,24,3524.51625145958,1600,100,0,64,6.9
05-9U8B,38,3,68.5629999637604,10.1907686023127,6269,1,0.954269174545454,0.0832512699303333,275,88.747536231884,0.841108172726178,69,33.8303636363636,0.0143424789369572,275,11.9161958973981,4395,0.673873546511628,0.0404476126967033,0.0405683994848787,86,673.705882352941,33.7728545969923,18.0398349095649,102,89.4705882352941,4.40986204216235,68,22.3676470588235,0.689027256456865,68,2511.42857142857,792.435132457818,28,3443.49295623728,1714,100,0,68,7.8
06-9UA7,1,6,65.3769998550415,5.5697642162816,7054,1,9.16953788167939,0.292807928879814,262,91.932,0.818442117684568,65,34.866641221374,0.0593142250907768,262,28.2824824332904,4191,0.639399509803922,0.0172690564062797,0.0199104585930646,102,639.303921568627,14.7928195156133,14.3250801321347,102,93.8939393939394,1.54051727455211,66,21.5757575757576,2.87193639344931,66,2318.57142857143,790.497800431331,28,1733.37872614773,1634,100,0,66,3.4
06-9UA7,2,27,64.1349999904633,6.05768904102304,6912,1,8.24599404669261,0.472723665159214,257,102.91375,4.48386472333219,64,34.7609727626459,0.0806578617462599,257,38.3833412498593,4111,0.651417525773196,0.0319231554472653,0.0369548592352041,97,651.397959183673,23.7155565960007,18.9766541324296,98,92.703125,3.71474833047007,64,27.375,0.701472374412202,64,2476.92307692308,1295.69987028098,26,3678.2768241001,1604,100,0,64,4.1
06-9UA7,3,9,64.4940001964569,6.47200438487247,6967,1,8.2588555620155,0.313830538839306,258,102.1890625,2.78869584285706,64,34.5586821705426,0.0536363290114354,258,46.9224286269606,4134,0.645167151162791,0.0400959814000818,0.0277962816228866,86,647.14,29.1239149882433,21.8740656366106,100,93.5692307692308,4.74989878434672,65,26.0307692307692,1.29866795661495,65,2355.55555555556,778.268953577466,27,5095.99202128156,1613,100,0,65,7.5
06-9UA7,4,30,64.6579999923706,6.13174610290604,6982,1,8.33452463320463,0.228020976035986,259,99.6518461538462,1.80328596968466,65,34.5309266409266,0.0273774652833222,259,32.3022308947566,4144,0.645833333333333,0.0281606846117316,0.0230181906557364,48,628.077669902913,29.4777048752697,11.6130420260171,103,95.9384615384615,4.40481598323402,65,26.4461538461538,1.17301386967995,65,2172.85714285714,572.666648188184,28,2888.75440686724,1616,100,0,65,1.5
06-9UA7,5,20,64.2619998455048,6.22191590936468,6937,1,8.59288396108949,0.326714225522974,257,91.0046153846154,1.67695508746794,65,34.5595719844358,0.0196902694766298,257,27.9718784281214,4119,0.628370098039216,0.0355644414135749,0.0323147806662052,102,629.960784313726,25.5202973261752,14.7996521232864,102,95.8125,4.28313414396959,64,27.21875,0.486932412767085,64,2264.28571428571,908.973489290422,28,2933.5573779296,1606,100,0,64,7.4
06-9UA7,6,34,66.9539999961853,6.30566354392102,7179,1,8.96834585074627,0.409359365886892,268,92.190447761194,0.83903341363706,67,34.5849253731343,0.0202880481284925,268,21.6635439017844,4292,0.631460336538462,0.0362772548379141,0.0309451146606249,104,630.509433962264,31.7241819386497,13.0970734644551,106,95.6865671641791,5.21713074290864,67,26.8955223880597,2.3749598296967,67,2287.14285714286,1040.2309470884,28,3774.2432623652,1674,100,0,67,3.2
06-9UA7,7,7,63.6849999427795,6.26866899326137,6922,1,8.8520853372549,0.261238992588069,255,88.12875,2.57354335437066,64,34.6292156862745,0.0222054771968298,255,26.4521331698642,4082,0.6375,0.0344767204799196,0.0188444590361102,100,639.77,31.9291687674737,13.4273202573309,100,94.171875,4.74610847273012,64,25.796875,2.5892309791697,64,3053.33333333333,1431.38161694683,21,5241.73473315318,1592,100,0,64,2.4
06-9UA7,8,24,56.5240001678467,6.27640352171805,6041,1,9.60972548017621,0.478770216892984,227,99.9456140350877,1.92498795686758,57,34.6289427312775,0.0177677065499999,227,36.111733906709,3623,0.64296875,0.0462820012113012,0.0477062593608364,60,629.633333333333,34.7551467371252,16.0459312634811,90,95.625,4.82253234118945,56,21.5714285714286,1.9804236723686,56,2315,1023.57005240184,24,4677.27277877592,1413,100,0,56,3.1
06-9UA7,9,5,64.8659999370575,6.8118785682575,7018,1,10.0383310615385,0.485379570287465,260,98.2701538461538,2.02183818923808,65,34.662576923077,0.0187210225542488,260,25.395228079931,4158,0.639583333333333,0.0389023907991142,0.0418373534290728,60,635.990196078431,25.133896916686,14.4373004250918,102,94.6923076923077,4.04630648293554,65,25.2153846153846,2.25341620997645,65,2500.8,965.064419266058,25,3971.20403178839,1622,100,0,65,6.9
06-9UA7,10,15,64.5990002155304,6.25945265720929,6961,1,12.0588938996139,0.448948121955421,259,79.86640625,2.79045275224291,64,34.6569884169885,0.0209882733270698,259,46.1462147559558,4141,0.635030864197531,0.0442154814642883,0.0260871997766625,81,642.792079207921,39.7777115560167,18.2096128459668,101,93.796875,6.07147817440055,64,24.046875,1.75869438856811,64,2703.63636363636,1601.5068661808,22,2812.30236864335,1615,100,0,64,5
06-9UA7,11,13,64.186999797821,6.22302679312872,6963,1,13.3057293774319,0.304808672225174,257,101.26265625,2.46122581549945,64,34.711906614786,0.022392604697448,257,40.7681029134181,4114,0.648116438356164,0.0248571206051183,0.0310868135060243,73,630.127450980392,36.511403770868,14.8006555915809,102,95.34375,5.78508961942353,64,21.796875,3.59973406204685,64,2528.33333333333,1318.02113417992,24,5008.0459865355,1605,100,0,64,5.4
06-9UA7,12,37,63.9930000305176,6.36512756745129,6952,1,13.0883677539063,0.305757609283945,256,94.7834375,2.00888598896669,64,34.681875,0.0218282062532715,256,31.455391819258,4101,0.644021739130435,0.0240975628470234,0.0261181474970272,69,626.21359223301,40.0983229040124,12.7356224202578,103,96.4375,6.70672488850994,64,23.90625,2.02146222418563,64,2571.2,1527.80976128138,25,3747.17883903603,1600,100,0,64,1.1
06-9UA7,13,33,60.5519998073578,6.15360637998359,6583,1,13.7129823539095,0.201348816257621,243,91.1581967213115,1.70967102897675,61,34.664279835391,0.0229037666245671,243,34.4144164470638,3881,0.645192307692308,0.0443426547880689,0.0385711282385381,65,634.81052631579,40.513012024991,14.3826875836076,95,95.0333333333333,6.50414904520644,60,23.7666666666667,1.90775994889265,60,3210.52631578947,2088.35255028192,19,4918.40524837533,1514,100,0,60,4
06-9UA7,14,36,65.0209999084473,6.23818904492032,7033,1,14.5338876206897,0.249543582405601,261,101.266515151515,2.37634787172653,66,34.7002298850575,0.0182700055678231,261,35.700079093289,4168,0.643229166666667,0.0447231083345258,0.0271801984896186,78,631.679611650485,50.5196940034344,18.8357190923386,103,95.4615384615385,7.5147291265989,65,21.3692307692308,2.26777169519739,65,2546.66666666667,1216.6192168631,24,4677.68407558483,1625,100,0,65,4.2
06-9UA7,15,38,59.8120000362396,6.24393202621372,6497,1,15.2825612008368,0.40566104012128,239,100.7195,1.90342458991459,60,34.6503347280335,0.0268025163246518,239,46.5958107734898,3833,0.619791666666667,0.0341103654723554,0.0198142503916015,75,619.340206185567,38.829726208886,10.4308237130791,97,97.5166666666667,6.5185307345945,60,24.55,2.57382522156934,60,2396.8,1260.78917085028,25,3323.4944893731,1495,100,0,60,3.8
06-9UA7,16,40,67,6.18729683214678,7283,1,16.8116523395522,0.332368302750877,268,101.197611940299,2.73632915437222,67,34.805671641791,0.0969300126771583,268,39.0738343154049,4295,0.640422077922078,0.0429776087229906,0.0321618606365562,77,628.598130841121,42.7530998132661,14.3306637853346,107,95.5970149253731,6.28866151749258,67,25.865671641791,2.10982925050935,67,2274.66666666667,1026.63740815153,30,3508.6236968272,1675,100,0,67,3.7
06-9UA7,17,39,64.9949998855591,6.50499040380613,7007,1,18.4680027662835,0.368702092160004,261,98.9183076923077,1.33275158182092,65,34.9158237547893,0.0411726147186506,261,39.6082216371916,4166,0.61484375,0.0336505174189575,0.0276681348948447,60,620.847619047619,22.9978180204043,11.8998222352592,105,97.1384615384615,3.85631350465102,65,26.4307692307692,1.48922411393936,65,2240,851.217615284968,29,2885.65078209104,1625,100,0,65,3.1
06-9UA7,18,19,65.0080001354218,6.91997630602486,7062,1,18.9650493384615,0.234181799302204,260,95.8806153846154,1.16260198063852,65,34.8060769230769,0.0293559214089784,260,44.7147948286363,4167,0.620497881355932,0.0217226156820924,0.0244483864321949,59,609.093457943925,23.8202912986483,9.46243815562652,107,98.8153846153846,3.94054369540354,65,26.9230769230769,0.989123543656395,65,2204.44444444444,895.275347989627,27,2972.79666045434,1625,100,0,65,5.3
06-9UA7,19,18,64.5480000972748,6.54348563848621,6889,0.989656658526074,18.0773026756757,0.295932674445699,259,98.98953125,1.38565717568659,64,34.7286872586873,0.0298804898594228,259,34.5930352685123,4137,0.614912974683544,0.0219603951718068,0.025759691355254,79,612.904761904762,20.8780911159207,8.82032181516507,105,98.3692307692308,4.02169596831218,65,26.7384615384615,2.02543917364947,65,2676.52173913043,1828.49816341085,23,3269.6454540177,1613,100,0,65,6.4
06-9UA7,20,8,64.6389999389648,7.58955746236499,6966,1,22.9872228416988,0.547541481092283,259,98.54796875,1.20958103685624,64,34.5912355212355,0.0179150269526905,259,61.5111355641562,4143,0.626802884615385,0.0433749376523604,0.0544862367942584,26,638.584158415842,23.4364107007591,11.888650049522,101,93.984375,3.08345398734333,64,24.53125,2.58179677805489,64,2078.66666666667,868.989636592835,30,3277.02390717952,1616,100,0,64,6.5
06-9UA7,21,10,64.7669999599457,7.90606655530145,7035,1,21.9328694633205,0.305190270381734,259,98.6833846153846,1.41079684589406,65,34.6777606177606,0.0169244969811971,259,33.5600286176869,4151,0.616517857142857,0.0525573666170051,0.0643677715816103,35,632.135922330097,23.7077998845624,12.4065131534791,103,95.3692307692308,4.05651185891752,65,28.2923076923077,2.48572849560167,65,2058.75,829.643335726943,32,2210.05073369701,1620,100,0,65,4.5
06-9UA7,22,32,64.0440001487732,6.34770783596402,6954,1,20.517397578125,0.396965700474361,256,101.59421875,2.19432659857874,64,34.648125,0.0185662565519519,256,36.730953489475,4105,0.622332317073171,0.0279295375923403,0.0382732772309872,41,621.669902912621,38.6328592104544,11.522782207606,103,96.859375,6.09675216035242,64,28.59375,1.8663158683982,64,1896.47058823529,845.558385894918,34,2877.2952189044,1602,100,0,64,3.2
06-9UA7,23,23,65.0409998893738,6.28088885088665,7068,1,19.0553116590038,0.362492934715087,261,96.2212121212121,1.31632649112423,66,34.68,0.0196116135138193,261,32.3617325586479,4168,0.625498670212766,0.0282917814463176,0.0269173990379409,94,624.257142857143,28.6712226978378,14.2926150915025,105,96.4615384615385,4.66059586814324,65,30.8,1.25249750498753,65,2171.03448275862,852.082930351879,29,2408.27347474563,1626,100,0,65,3.8
06-9UA7,24,21,67.2489998340607,6.47479258805475,7312,1,18.5760126394052,0.237213474783397,269,90.4225,1.52215614453912,68,34.7525278810409,0.0169151791864947,269,32.9452627156089,4311,0.629241071428571,0.0405117419093657,0.0466480010872361,70,625.710280373832,26.4568032930414,12.0756264730647,107,96.1044776119403,4.14923990249185,67,27.6119402985075,2.05938519716956,67,2091.61290322581,696.673509252809,31,2536.36723937301,1681,100,0,67,4.1
06-9UA7,25,14,64.2939999103546,7.21901539738846,6971,1,17.9881985953307,0.296971441031977,257,90.1275,0.974765743124087,64,34.8588715953307,0.0318058540851455,257,37.8041567142746,4121,0.621279761904762,0.0214987026254161,0.0232781677653589,42,622.300970873786,16.4005230377238,9.53065230366386,103,96.921875,3.08248862303028,64,28.03125,2.38359971871277,64,2098.06451612903,1074.74468085786,31,2178.55989688953,1608,100,0,64,6.2
06-9UA7,26,12,64.930999994278,6.96568283280175,5713,0.811736288718386,18.1080977346154,0.525811332249427,260,91.6353846153846,2.18566142514906,65,34.8052307692307,0.0167292952591949,260,105.166812982844,4162,0.631628787878788,0.0491055094609795,0.0259111311746516,33,618.371428571429,42.0343854533352,14.4990052709196,105,97.4307692307692,6.65199507377587,65,29.6769230769231,1.3931494480548,65,1973.75,803.451225008551,32,2997.75225894877,1623,100,0,65,6.6
06-9UA7,27,29,65.3970000743866,6.73969221113772,7209,1,18.6986377862595,0.416578630790656,262,88.9038461538462,3.12152741674033,65,34.8043511450382,0.0198885491088975,262,26.4175788954197,4192,0.636837121212121,0.0291113628324878,0.0294439865140021,99,634.679611650485,20.4024285329905,12.9705548885792,103,94.8769230769231,2.9395348925664,65,29.7230769230769,1.4198117426671,65,2230,1085.26153188648,28,1984.22964105076,1635,100,0,65,4.6
06-9UA7,28,22,66.0520000457764,7.19188752666546,7266,1,19.1366873181818,0.307414537124936,264,95.1093939393939,1.97018459017101,66,34.772803030303,0.0174327341205913,264,45.4668885179913,4234,0.608347039473684,0.0526223479089612,0.0219492786517765,76,615.490740740741,45.8389083742349,13.2004672814487,108,97.8636363636364,7.57909343804768,66,26.8181818181818,1.68165752398401,66,2144,759.644199836231,30,2543.49878420957,1652,100,0,66,5
06-9UA7,29,25,65.316999912262,6.70484460001866,7128,1,18.4519864503817,0.245685825075112,262,102.106212121212,2.39697486598389,66,34.753893129771,0.0165662500969392,262,27.8843364459286,4186,0.623579545454545,0.0300259895913597,0.0251276375352608,88,621.704761904762,24.6728298903578,11.4299707247758,105,96.8484848484848,3.97005105273287,66,28.1515151515152,1.02645655222861,66,2098.66666666667,957.683027733705,30,2022.0067564628,1633,100,0,66,4.8
06-9UA7,30,1,64.4030001163483,7.44214757849011,7028,1,18.9473985271318,0.460954777770506,258,93.38453125,0.593581889317217,64,34.7558914728682,0.0273786648482514,258,41.5197845013904,4128,0.630809294871795,0.0399837767646638,0.039776350716207,78,633.227722772277,26.9101769552409,13.3240384268434,101,95.3076923076923,4.32262607148087,65,28,2.56782982302177,65,2440,1191.75836477031,26,2575.38163729826,1611,100,0,65,6.9
06-9UA7,31,2,64.1050000190735,6.23258454145436,7004,1,18.4553832256809,0.128945814421409,257,86.10984375,2.02428313173346,64,34.8689105058365,0.0241815190953482,257,25.972322384318,4109,0.654905913978495,0.0344533378908141,0.0241622544073081,93,657.938775510204,29.7338074538338,17.8718231262418,98,91.40625,4.14697728893234,64,26.03125,1.50099173564553,64,2252.85714285714,1104.82060599383,28,2425.39925805142,1602,100,0,64,5.1
06-9UA7,32,3,68.8289999961853,6.73250896080518,7537,1,19.490000134058,0.329256966450539,276,96.3398550724638,1.5190994746827,69,34.8436231884058,0.0203225635099324,276,26.1950880449072,4412,0.625284090909091,0.0337968622544836,0.0199110154900255,110,628.009174311927,29.0467360991838,9.0251705636904,109,95.9710144927536,4.94966135054521,69,27.231884057971,3.16759756586927,69,2388.57142857143,928.677730993011,28,2948.57880304654,1721,100,0,69,7.1
06-9UA7,33,28,64.720999956131,6.24335796580623,7077,1,18.106289949807,0.263658912996738,259,97.7881538461539,1.15645321499036,65,34.8377992277992,0.0159511803462986,259,21.3676611342793,4148,0.627644230769231,0.0256996267639296,0.0301313449619951,65,630.941747572816,24.3579617143314,12.2085633719878,103,95.5846153846154,2.26310287335433,65,25.6,1.49791521789452,65,2411.2,1186.50860370529,25,2811.39520029086,1618,100,0,65,5
06-9UA7,34,17,61.8010001182556,7.36369569727797,6806,1,19.0683918790323,0.288029821809276,248,91.4591935483871,2.02957663225294,62,34.9632258064516,0.0317772711046939,248,26.7839388996466,3961,0.631131329113924,0.0387138059809588,0.0310993967137875,79,621.878787878788,37.6707737976773,13.6411741669499,99,97.1935483870968,6.17461410402997,62,24.7258064516129,1.83918509073733,62,2121.42857142857,819.429405296485,28,3018.47783107718,1545,100,0,62,5
06-9UA7,35,11,64.4720001220703,6.63986548182466,7104,1,18.6409003706564,0.306678464297824,259,97.4813846153846,1.4701731157876,65,34.8606563706563,0.028515494019565,259,29.3417493339077,4133,0.623355263157895,0.0286005965137206,0.0209507440646317,95,620.317307692308,28.7183390624588,11.9175973339257,104,97.296875,5.27250937967209,64,28.03125,1.88535500425344,64,2590.4,1017.92468614661,25,3045.05259277268,1612,100,0,64,5.8
06-9UA7,36,26,62.0599999427795,7.0216182650132,6772,1,18.6742467862903,0.325467884837565,248,100.640322580645,2.37796370233982,62,34.7828225806452,0.0326944010576701,248,25.7468440751768,3977,0.6201171875,0.0382944777406897,0.0343387139237358,48,609.227722772277,34.4879344664533,10.8825548470936,101,98.9354838709677,5.4588504396701,62,24.2258064516129,0.982124743148871,62,2141.42857142857,846.81413538874,28,2557.93007467667,1551,100,0,62,5
06-9UA7,37,31,63.8670001029968,6.65378940475083,7038,1,19.919620265625,0.369327035220028,256,112.9025,5.63859658324405,64,34.782578125,0.0404144430356572,256,30.1242242000543,4094,0.632102272727273,0.0292808685932025,0.024613623053399,55,621.68932038835,31.812572778518,11.0271500949106,103,96.9375,5.28812686253703,64,27.84375,1.47162311859205,64,2076.12903225806,785.967248763606,31,2503.37310902918,1597,100,0,64,3.1
06-9UA7,38,4,65.0810000896454,6.73963520220952,7160,1,19.1713686666667,0.245284930265756,261,79.6275384615385,6.282419177447,65,34.734214559387,0.0263529289478811,261,33.0990027848794,4171,0.635537790697674,0.0276415396361192,0.0280131705312749,43,626.038461538462,28.4266807111019,11.0936000092417,104,96.0615384615385,4.67331829069601,65,29,0.935414346693485,65,2154.48275862069,1250.63294320144,29,2712.35955693309,1627,100,0,65,6.5
07-9UAD,1,22,66.4850001335144,8.01860355207846,7138,0.983060184547583,0.10066545112782,0.00383124098120871,266,52.3311940298507,0.947090476603428,67,34.394962406015,0.0163741194849132,266,57.0339972948299,4262,1.0842803030303,0.107895928002834,0.103607712577147,33,1039.28125,96.190860000413,73.7471010998732,64,58.5373134328358,4.99493185020078,67,13.5223880597015,0.503268376961248,67,4349.33333333333,1027.44806380154,15,3446.5507044171,1662,100,0,67,3.2
07-9UAD,2,15,65.0680000782013,7.74107351405641,7133,1,0.100302482758621,0.00189500032390135,261,72.0950769230769,5.86235557473405,65,34.373908045977,0.0302562004518481,261,46.7349077002938,4171,1.07630208333333,0.0857792585222095,0.0802156702932365,60,1085.3,72.2998230065583,80.0137700013598,60,55.9230769230769,4.44517889230742,65,14.6153846153846,1.18179296637974,65,3731.11111111111,1350.19340178443,18,2309.46722500095,1626,100,0,65,5
07-9UAD,3,23,65.3639998435974,7.88255444754653,7133,1,0.105908129770992,0.00163499394774066,262,66.0345454545455,4.85084867493647,66,34.3170610687023,0.0208108635516489,262,48.3464442133275,4190,1.08607954545455,0.111376881878239,0.0886437320223593,55,1102.52542372881,91.8417597024817,85.2715742748446,59,55.0769230769231,5.4552374269701,65,15.1538461538462,0.666866957092296,65,3775.55555555556,1285.73266923262,18,1659.1580039371,1634,100,0,65,4.5
07-9UAD,4,5,64.8869998455048,7.99454173669208,7024,1,0.106553292307692,0.00160717479376116,260,67.9175384615385,4.70871068830459,65,34.3007692307692,0.0189539325537351,260,54.8600790573293,4159,1.06510416666667,0.134231288333565,0.111046858469492,54,1071.73770491803,98.6307764069857,94.2118180838618,61,57.6923076923077,7.71954313116043,65,13.7230769230769,0.718237693674862,65,3757.64705882353,1233.97492585833,17,1986.82059815955,1622,100,0,65,7.3
07-9UAD,5,26,62.058000087738,8.21211373978869,6550,0.972242838058483,0.110358779116466,0.00145640277524992,249,70.7141935483871,4.38745960642266,62,34.2729718875502,0.0166317810828333,249,51.885662855515,3979,1.02463942307692,0.0992246555216299,0.0930581086251077,52,1032.26666666667,80.5356783061147,82.0950255517287,60,58.7096774193548,4.37349354588242,62,16.1290322580645,1.10859342231115,62,4357.33333333333,937.774467759148,15,2571.40664985241,1551,100,0,62,5
07-9UAD,6,1,64.4550001621246,8.60738318446876,6846,0.97813973424775,0.111134310077519,0.00175546105464427,258,69.1298461538462,3.174998273773,65,34.2706976744186,0.0299594030505708,258,66.8196240171345,4132,1.03831845238095,0.12206941873221,0.0808959806163325,42,1049.34426229508,114.839436496629,86.4416951862159,61,58.78125,5.83494875591268,64,16.84375,1.7110170557535,64,3488.88888888889,362.878830674419,18,2785.26473669133,1611,100,0,64,4
07-9UAD,7,29,65.6729998588562,8.08070211753093,7078,0.984696716750139,0.11744530418251,0.00152528470582951,263,69.7553846153846,4.35748891167661,65,34.2626996197719,0.0162498702240246,263,46.7493717694083,4210,1.06392045454545,0.109598928878965,0.101904333057678,44,1048.87301587302,110.195060492233,74.2211168977427,63,59.4393939393939,8.30037772612008,66,17.6969696969697,2.2666118188894,66,3486.31578947368,782.731758553307,19,1689.29713703676,1642,100,0,66,6.4
07-9UAD,8,31,63.7249999046326,7.73955203000107,6858,0.990897269180754,0.122427247058824,0.00146642639897252,255,69.315,4.95692076717628,64,34.2843529411765,0.0151460391244019,255,46.5118176984182,4085,1.04241071428571,0.133140947005347,0.0828674238961356,56,1035.8064516129,129.316974746915,80.2607431142143,62,59.203125,7.690810198408,64,14.71875,0.576490476800155,64,3338.94736842105,626.435194279168,19,3009.57712053485,1593,100,0,64,4.6
07-9UAD,9,37,63.7060000896454,7.45440139973556,6942,1,0.122296670588235,0.00139868797397454,255,67.11671875,5.54836227936991,64,34.2953333333333,0.018776206532698,255,48.1317647747203,4084,1.07534722222222,0.0652186493437439,0.0770162804696927,45,1070.31666666667,65.9346085062318,73.9211673544922,60,56.734375,3.78485783214163,64,17.515625,0.816344688715282,64,3370.52631578947,487.686986181945,19,1195.20966443673,1593,100,0,64,4.4
07-9UAD,10,4,65.1730000972748,7.84779036545139,7025,1,0.124598950191571,0.00164254410121392,261,71.6341538461538,4.77254252610299,65,34.2965134099617,0.0158511347646606,261,49.4680214308029,4178,1.07558139534884,0.0743062401430534,0.0897587913521567,43,1041.90476190476,98.9883854845077,73.1478837918487,63,58.9538461538462,6.71153570641336,65,16.7076923076923,0.458362469936353,65,3724.70588235294,607.269685220854,17,2062.89938947725,1630,100,0,65,4.4
07-9UAD,11,25,65.4690001010895,7.40410619389444,7149,1,0.142208389312977,0.0020092812789195,262,65.5512307692308,4.35099719449903,65,34.4166412213741,0.0157621539566496,262,48.3402015658276,4196,1.08463541666667,0.0674847255617557,0.0746859597564747,60,1086.71666666667,61.5384933045333,64.2418629022582,60,56.0757575757576,3.72645678714784,66,17.530303030303,0.769009292125454,66,3588.88888888889,532.042555671773,18,1552.12107181805,1637,100,0,66,3.7
07-9UAD,12,7,63.7019999027252,7.90315161359994,6859,1,0.138306129411765,0.00154840360352433,255,67.1246875,5.46209476903074,64,34.4616862745098,0.0189045365926436,255,60.6665432359489,4084,1.08888888888889,0.0521235640077857,0.0651940667179711,45,1077.45762711864,66.9416426330449,64.302893161704,59,56.53125,4.31302475528283,64,16.90625,0.426084051623173,64,3900,759.50861307383,16,1980.65589788915,1593,100,0,64,7.2
07-9UAD,13,27,63.8739998340607,8.13084245809381,6869,0.989769452449568,0.13989773828125,0.00169653167705018,256,69.624375,3.76091675542943,64,34.475625,0.0186505532694044,256,49.5528724328282,4094,1.02864583333333,0.0981137763921961,0.108138439695746,60,1028.98387096774,93.0398278784694,95.3920297732588,62,59.2539682539683,5.28225347185379,63,17.1904761904762,0.534522483824849,63,3229.47368421053,319.67820076881,19,2053.32321268836,1597,100,0,63,5
07-9UAD,14,12,64.6129999160767,7.75095586975088,6956,0.996561604584527,0.145889702702703,0.00155508924207153,259,68.7934375,4.5018628309193,64,34.4470656370656,0.0177154384746303,259,57.863377947642,4142,1.05887276785714,0.0726178919658462,0.0744892647848119,56,1039.61290322581,95.238330009028,69.5619784973014,62,58.828125,7.04758134240235,64,17.3125,0.613990331344173,64,3362.10526315789,844.6930997401,19,1621.63564048786,1615,100,0,64,6.1
07-9UAD,15,30,64.6840000152588,7.59587971421826,7045,1,0.150008208494209,0.00137128997541431,259,66.2687692307692,3.2107570698417,65,34.4627413127413,0.0195247475595014,259,47.285297850517,4147,1.05691964285714,0.116943062166856,0.0812991547115847,56,1052.75409836066,111.134101537693,80.6826086175536,61,58.9846153846154,8.39362166263077,65,16.9846153846154,1.20535663410653,65,4047.5,1408.86479124152,16,1316.20483789459,1617,100,0,65,5
07-9UAD,16,8,64.6800000667572,7.78608655189711,6898,0.987686139747995,0.151802922779923,0.00163734132014834,259,65.5781538461538,3.5996657363513,65,34.4839768339768,0.0222915721728517,259,50.4439817373421,4146,1.06789772727273,0.0815908416804726,0.0723252303609139,55,1063.49180327869,72.1176406877031,58.6411402799548,61,57.46875,4.76418100358505,64,19.703125,0.885145266528124,64,4133.33333333333,1756.403251236,15,1304.86559403286,1617,100,0,64,6.1
07-9UAD,17,9,64.6740000247955,7.73746777550577,7086,1,0.150670652509653,0.0013151370676433,259,81.22171875,12.4938000566741,64,34.5018532818533,0.0168796956958528,259,45.7786395536466,4146,1.03956653225806,0.106415528528302,0.059042424921185,62,1055.06557377049,79.9820539980603,60.2579178753022,61,58.1230769230769,6.49881646029609,65,16.7846153846154,1.30494621168254,65,3543.15789473684,1585.50746391452,19,1588.15858834411,1617,100,0,65,6.9
07-9UAD,18,28,65.0220000743866,8.19193401378092,6848,0.970109080606318,0.14844375862069,0.00181344601602871,261,71.2486363636364,3.59485268184884,66,34.516245210728,0.0186382883946551,261,46.9452610767348,4169,1.04148706896552,0.0918972297258235,0.0859375,29,1041.87301587302,76.8207994481611,67.3065926886426,63,60.0153846153846,8.08256670961549,65,15.2,1.64126475621699,65,3694.73684210526,1669.12940854091,19,2739.16601032748,1625,100,0,65,5
07-9UAD,19,24,56.2330000400543,8.65327454009504,5863,0.955041537709725,0.151418079646018,0.00139158363914622,226,66.0760714285714,2.13026731448634,56,34.5292920353982,0.0182679714453359,226,45.0502565277706,3605,1.0009765625,0.145165550339898,0.0703586580171817,48,988.087719298246,134.859090575226,82.1304493734554,57,62.125,8.3775945777467,56,18.0892857142857,2.21791700569608,56,4374.28571428571,1723.65316110296,14,4868.90084202127,1406,100,0,56,5
07-9UAD,20,13,64.1929998397827,8.3831231477379,6908,0.988551803091013,0.211668762645914,0.00365027777331386,257,68.47984375,3.82795834023354,64,34.5074319066148,0.0180174674757921,257,40.3122956856606,4115,0.989583333333333,0.105625593109868,0.127571572817136,54,993,99.0269849586465,95.2277697155614,65,61.71875,4.29273565050066,64,13.6875,0.957427107756338,64,3825,1253.46453214015,16,2441.47580046175,1605,100,0,64,5
07-9UAD,21,10,64.8369998931885,8.094488083084,7025,1,0.201364196911197,0.00308931732816475,259,70.7447692307692,5.06841232157946,65,34.6116216216216,0.0151118464386883,259,61.4503490899774,4156,1.03737745098039,0.0799217409806152,0.0932800722287456,51,1032.84126984127,96.5951321736857,85.2030780906948,63,58.7846153846154,5.5663394268931,65,17.8615384615385,0.348071610669193,65,3454,689.07565851501,20,1622.24875238283,1621,100,0,65,6.6
07-9UAD,22,6,64.9910001754761,8.74187502222778,6971,0.985857728751237,0.187036576923077,0.00154948064466494,260,66.6969230769231,3.86848885349504,65,34.6485384615385,0.0166550994410807,260,55.7288813734977,4166,1.03839285714286,0.0878458613247702,0.0824187712860008,35,1052.82258064516,81.8063535537166,67.2889536156457,62,58.0769230769231,4.86154454722112,65,17.9230769230769,0.989123543656395,65,3671.11111111111,1060.5708168323,18,1622.14883047501,1625,100,0,65,6.8
07-9UAD,23,36,64.6449999809265,7.79752084224225,7083,1,0.181147088803089,0.00143208305343244,259,68.7113846153846,4.02834949022359,65,34.6776061776062,0.0198946674047763,259,46.84390160134,4144,1.0577761627907,0.0823652062523774,0.0942447263902917,43,1051.87096774194,78.2223572650256,82.6985440036756,62,57.6769230769231,3.45555572732019,65,18.8461538461538,1.39452914579135,65,3851.76470588235,1440.12254380538,17,2143.03604572588,1616,100,0,65,6.5
07-9UAD,24,38,59.8050000667572,8.33542216382751,6384,0.977342314758114,0.192082857740586,0.00561600307912302,239,70.5603333333333,2.9437408269916,60,34.674769874477,0.0249337224900556,239,58.6641636659889,3833,1.00473484848485,0.0882574678009322,0.0966352881004139,33,982.934426229508,95.9417998671519,62.8071121238139,61,61.7166666666667,6.41526692488427,60,18.4666666666667,1.39571580161223,60,3078,864.599694412939,20,1747.59188125208,1495,100,0,60,6.2
07-9UAD,25,40,66.9969999790192,7.98443185666536,7149,0.982680412371134,0.191003598513011,0.00443682725009234,269,68.000447761194,4.14437970386468,67,34.6976208178439,0.0215688176161441,269,53.7970788538857,4295,1.02860169491525,0.0934420473019202,0.104473775015304,59,1018.71212121212,85.1136371883568,74.3340692156285,66,59.134328358209,4.24226755541885,67,17.1194029850746,0.685839190881164,67,3344,730.72710724535,20,2200.17509332868,1675,100,0,67,6.1
07-9UAD,26,32,63.720999956131,8.09208396129585,6995,1,0.197457964705882,0.00436187215308424,255,71.90359375,5.39389024353716,64,34.735568627451,0.0242438846108064,255,49.6956680881968,4085,1.0275,0.0906458895698992,0.0897310323314365,50,1030.61290322581,80.1699741100754,81.7260517887877,62,58.65625,4.20211114741603,64,18.125,1.29099444873581,64,3345.26315789474,443.663641625708,19,2842.62460940898,1593,100,0,64,6.3
07-9UAD,27,33,60.5419998168945,8.71616785743173,6532,0.987751398760018,0.222999578512397,0.00694517439773632,242,68.5652459016394,4.06286582211677,61,34.7390495867769,0.0262671722103493,242,60.2263684776443,3881,1.02022058823529,0.0635016110123093,0.0684328947184426,34,999.704918032787,84.2156644697203,68.6937648795968,61,60.8688524590164,5.03148556537088,61,17.4262295081967,0.76286775598052,61,3491.76470588235,256.033086097228,17,1962.71540270671,1513,100,0,61,5.1
07-9UAD,28,11,64.4580001831055,8.19915010631006,6970,0.993443557582668,0.224518596899225,0.00884647246677228,258,68.78109375,3.80834968932093,64,34.6850387596899,0.0286702446386241,258,57.4374113862089,4132,1.05868055555556,0.072001151918044,0.0801582020628865,45,1047.45161290323,68.2509058174093,69.406382283183,62,57.828125,4.76280125489725,64,18.96875,1.43614066163451,64,3200,339.411254969543,20,1038.80045918919,1611,100,0,64,6.4
07-9UAD,29,39,64.7679998874664,7.98885552479241,7043,1,0.209643188461538,0.00591769251693284,260,68.1349230769231,4.31915577799822,65,34.6647692307693,0.0150271509546982,260,51.0144794562125,4152,1.02576754385965,0.0646593513574548,0.0580893467842549,57,1019.88888888889,69.0009609823476,55.4387194378011,63,59.5846153846154,4.61956541412551,65,18.7230769230769,0.943856654696774,65,3622.22222222222,572.831517736601,18,1448.42541570618,1619,100,0,65,5.8
07-9UAD,30,17,61.7920000553131,8.15125194961695,6747,1,0.206230431451613,0.0133615743579571,248,66.6540322580645,4.02893854128282,62,34.6600806451613,0.0119374868161149,248,61.6256075059245,3961,1.05897177419355,0.0646391321562564,0.0859138224957622,31,1041.54237288136,88.5409163225561,80.616268572917,59,58.8225806451613,5.64386855334956,62,18.3548387096774,1.67034672157617,62,3536.47058823529,898.560941008389,17,1355.11576467113,1544,100,0,62,5
07-9UAD,31,19,64.6610000133514,7.97894695245219,6905,0.983338080318997,0.218555281853282,0.011639351106814,259,64.7913846153846,2.97464066996076,65,34.6742084942085,0.0163906691777956,259,48.4664907306029,4145,1.0070564516129,0.0954565773811453,0.099067921775921,31,1016.234375,74.4300549866615,67.9471082814385,64,60,4.7241359334232,64,19.5625,0.55990361982404,64,3272,547.31497714801,20,1566.28683904403,1617,100,0,64,6.9
07-9UAD,32,2,64.0939998626709,7.85740817873492,6909,0.99410071942446,0.2428377734375,0.00678107229210993,256,65.57265625,3.5041106211191,64,34.7114453125,0.0302645352779165,256,54.5071218178054,4109,1.01776960784314,0.0991674132860343,0.106387778315933,51,1032.8064516129,99.9599655451756,86.299136633031,62,58.890625,5.14894714927545,64,19.53125,1.22109435694848,64,3475.55555555556,835.887849374559,18,1681.36359273337,1602,100,0,64,7.9
07-9UAD,33,20,64.1619999408722,8.43152594463956,6874,0.987359954036196,0.25577580155642,0.00687002183484504,257,71.0125,6.03285238809205,64,34.7460311284047,0.0211718923867801,257,58.50248536685,4113,1.00737847222222,0.0947481176128087,0.0820445354887906,36,1008.25,95.9220914025941,79.6246153213902,64,60.15625,5.17079328291155,64,18.0625,1.76270895417901,64,3267.36842105263,710.061359674587,19,2713.78188810554,1604,100,0,64,7
07-9UAD,34,14,64.0629999637604,7.88544453630068,6969,1,0.249064128404669,0.00688980197147234,257,71.58,4.61538490028489,64,34.7391050583658,0.0145631925028656,257,43.730704805214,4106,0.99609375,0.109095625341945,0.0765094589645392,44,998.40625,92.0970362568828,67.7698017685313,64,61.078125,5.44322700593088,64,17.84375,0.56956541494789,64,4017.5,889.280608132214,16,1945.60287968681,1602,100,0,64,7
07-9UAD,35,34,66.6180000305176,8.06952634944284,7315,1,0.252455195488722,0.00629015813036812,266,69.8059701492537,5.06092399627431,67,34.7415789473684,0.0164301657802678,266,48.6623928807967,4270,1.00358606557377,0.0913046284565883,0.0786958312375355,61,999.865671641791,88.2468808827083,72.4955589026394,67,60.7272727272727,4.86603757469275,66,19.2727272727273,1.17073881400993,66,3090.90909090909,1020.56431210949,22,1663.92521094765,1666,100,0,66,5.5
07-9UAD,36,18,64.5400002002716,7.96008990112542,6955,0.997561675272519,0.262880432432433,0.0113674897427967,259,67.8603076923077,4.0951312437877,65,34.7567953667954,0.0202350676536152,259,49.2841564206066,4138,1.01644736842105,0.0815873968137481,0.0509312687906457,57,1011.984375,77.1953802770031,53.8407410501137,64,59.703125,4.92379930573684,64,18.96875,0.975391659226635,64,NaN,NaN,0,1366.15922229393,1613,100,0,64,7.1
07-9UAD,37,21,67.3229999542236,7.72597775086502,7231,0.987706597459364,0.267756197026022,0.00992152156469949,269,71.4823880597015,5.72383509110442,67,34.7354275092937,0.0189732565548366,269,46.9355544272493,4315,0.978125,0.0884445088406725,0.0744362196413246,60,983.382352941176,77.5815467772536,73.6612861320441,68,61.7014925373134,5.36265121386895,67,17.5671641791045,1.06207174038655,67,NaN,NaN,0,1725.25263833392,1683,100,0,67,5
07-9UAD,38,3,68.8050000667572,8.28050845519149,7275,0.97729715206878,0.334126380434783,0.0233158483169363,276,65.8894202898551,3.57075164440946,69,34.7288405797102,0.0175632866573477,276,42.4349259796303,4411,1.01694915254237,0.0719714574600557,0.0721882230520588,59,1002.58823529412,79.8304612669441,44.5489836056728,68,60.6666666666667,6.51393679344677,69,20.0144927536232,1.54817495613372,69,NaN,NaN,0,990.158020660276,1720,100,0,69,7.1
08-9UB2,1,30,64.6890001296997,7.36433886593273,7120,1,1.17525253667954,0.197940094905414,259,70.5376923076923,2.11312695521262,65,33.4748262548263,0.0230492547649947,259,29.7417729245836,4147,0.8623046875,0.0596263184471631,0.0621081466073493,16,831.846153846154,56.4637746006928,55.0572311444982,78,72.40625,3.82024161955053,64,20.296875,0.46049274850813,64,3059.04761904762,308.705438272551,21,2955.6824658115,1617,100,0,64,2.8
08-9UB2,2,21,67.2829999923706,7.92716782697312,7110,0.965507876154264,0.638948933085502,0.0462163794664623,269,76.1541791044776,1.74301389035802,67,33.5882156133829,0.0285432046454512,269,35.3590034621151,4313,0.841346153846154,0.0653161612579487,0.10065702130254,13,800.857142857143,70.4348186858222,50.0249335422209,84,75.8235294117647,5.94738416466493,68,17.0588235294118,2.76374369149419,68,2886.95652173913,323.987019698022,23,4157.72790556359,1682,100,0,68,3
08-9UB2,3,10,64.7210001945496,7.71908215986079,6997,0.994739835086722,1.20178467307692,0.431751235559617,260,78.7143076923077,3.63236448871065,65,33.5875384615385,0.0197302871059762,260,33.975464542308,4148,0.861328125,0.0256575087780639,0.0359229395969444,8,820.050632911392,64.5113583189688,50.0089735537277,79,73.6461538461539,4.89397195930479,65,16.4153846153846,3.32552771983404,65,3268,767.344018094403,20,4679.50621464586,1618,100,0,65,5
08-9UB2,4,28,65.3129999637604,8.42526860400707,7123,1,1.33107952671756,0.149230965512415,262,80.7133333333333,3.96324782638347,66,33.6390076335878,0.0136656832745178,262,35.0975635985111,4186,0.842708333333333,0.0599071547271275,0.0654064949991068,45,831.227848101266,59.3583099332391,51.507032131296,79,72.2461538461538,4.42659141309219,65,19.7384615384615,0.923257193935604,65,3064.7619047619,519.765514897045,21,3655.4953122648,1633,100,0,65,3.5
08-9UB2,5,12,65.1280000209808,8.4159955474553,6959,0.983187341056796,1.09656929501916,0.106758246190207,261,75.2678461538462,0.986720407948239,65,33.5869348659004,0.0145639033124193,261,52.8067241339654,4175,0.782986111111111,0.0466873969187162,0.0599191397537008,18,768.928571428571,48.9587447950874,39.2877858943709,84,79.2,5.40023147652024,65,17.0153846153846,3.99801633505725,65,3020,841.1103772197,22,5418.66877418395,1629,100,0,65,7.1
08-9UB2,6,7,64.1399998664856,7.56396177046992,6939,0.993983669961324,0.627057120622568,0.0834640308413521,257,76.84953125,2.74279282396582,64,33.5979377431906,0.0193454415547802,257,16.9823361463266,4112,0.866976351351351,0.0919696122719698,0.102128497662123,37,851.828947368421,79.0045379553849,71.7742758003637,76,72.359375,7.04265279091149,64,17.328125,2.98703381831308,64,3001.90476190476,596.721199955382,21,3676.98955451775,1604,100,0,64,7
08-9UB2,7,39,64.9509999752045,7.58547470635388,6918,0.980720158775163,0.528935980769231,0.0218275525789425,260,77.4535384615385,1.83702156251739,65,33.6701538461539,0.0217029654890467,260,29.8663056023887,4163,0.841077302631579,0.0712330095739365,0.0532779660522684,76,844.584415584416,65.6566729380853,52.5603662968891,77,71.8615384615385,5.5251609792072,65,15.7076923076923,3.4082761264085,65,2836.36363636364,388.777638179013,22,3788.92905799841,1624,100,0,65,5
08-9UB2,8,15,65.0989999771118,10.0514039782717,7158,1,0.422187429118774,0.0217937064015084,261,81.4093846153846,3.39444577440628,65,33.6920689655173,0.0188600879576928,261,55.7734275167922,4173,0.733072916666667,0.0283717537088297,0.0293223394767761,24,764.4,62.8753869627399,30.4208575064637,85,78.9846153846154,6.03244433172695,65,17.7384615384615,2.71728795790101,65,2970.4347826087,628.90581937542,23,5122.16645861574,1627,100,0,65,5
08-9UB2,9,6,65.1610000133514,7.38776752902933,6831,0.953917050691244,0.59796608045977,0.035846878481059,261,83.8641538461538,3.65860581895092,65,33.7349808429119,0.0194466631718033,261,31.0869333079304,4177,0.8193359375,0.0726437814655534,0.0695435800330234,64,802.358024691358,72.3080750404088,51.2257259587407,81,75.4307692307692,6.49271040949298,65,15.0923076923077,3.52545687164744,65,2961.81818181818,809.3244470582,22,5153.09509144687,1629,100,0,65,6.9
08-9UB2,10,22,66.6380000114441,7.49456194601734,7136,0.986043940859472,0.529740925093633,0.0353955458453972,267,76.8728787878788,1.09494188837935,66,33.7725468164794,0.0183397514756335,267,29.0356330859622,4271,0.810132575757576,0.0582859656167657,0.0606703339621344,66,803.698795180723,55.6626894654823,55.4404756605083,83,75.9848484848485,4.42542453154297,66,14.8939393939394,2.49386192868557,66,3786.66666666667,1267.21556734348,18,5141.95497098653,1666,100,0,66,3
08-9UB2,11,23,65.0869998931885,8.22308014148127,6958,0.986250885896527,0.759977072796935,0.0983970077779811,261,75.4672307692308,1.03455834129278,65,33.7860153256705,0.0149686773858606,261,24.2371783172723,4172,0.810842803030303,0.057238167699862,0.0423274920889304,66,807.987654320988,57.9116771098801,36.3180395946698,81,75.0769230769231,5.44089747970088,65,14.7230769230769,2.87504180571612,65,3066,358.540902753603,20,7310.29610387555,1628,100,0,65,2.2
08-9UB2,12,3,68.8050000667572,7.62209040623229,7409,0.992631296891747,0.685802942028986,0.0684792028732034,276,85.0936231884058,2.66043946558508,69,33.8228985507246,0.0156415715811526,276,46.8502992946674,4411,0.7828125,0.0519179932110997,0.055111476972295,60,750.549450549451,61.4549995681147,36.3281341845867,91,80.5735294117647,6.44683464264206,68,18.1176470588235,3.87694837590007,68,2657.6,301.348082234924,25,4204.11177777265,1720,100,0,68,6.1
08-9UB2,13,26,62.3050000667572,7.51048081379469,6522,0.962230746532901,1.38457872,0.199245993401332,250,84.4514516129032,2.4862183059485,62,33.81208,0.0166849377761608,250,31.3349183321429,3994,0.821068548387097,0.0892749129411234,0.0661401521268333,62,811.246753246753,80.3011037225313,50.9310679665224,77,74.8709677419355,6.31803007005787,62,15.3387096774194,1.89860646382945,62,3780,1330.18294481123,16,10305.2091316801,1558,100,0,62,5
08-9UB2,14,36,65.1519999504089,7.10098325118716,6957,0.983877810776411,1.38905709578544,0.188116613824823,261,80.3387692307692,3.22951114126248,65,33.8319923371647,0.00995450896566125,261,44.1160349153533,4176,0.832932692307692,0.0829525586747334,0.0483965300522026,65,826.075949367089,86.4933333953754,56.9920147353096,79,73.8181818181818,7.28731055361957,66,16.4090909090909,3.70437277044004,66,2918.26086956522,391.450126556408,23,3645.8846048383,1629,100,0,66,1.1
08-9UB2,15,31,63.8529999256134,7.30666495658698,6906,0.996249278707444,1.49671712890625,0.497306134946031,256,82.30109375,2.5184494582205,64,33.817734375,0.0135017700364665,256,40.2793890297379,4093,0.790492957746479,0.0571711203604549,0.0445478900614672,71,811.772151898734,58.9119180330738,46.2861778116346,79,74.8125,5.54598381785743,64,16.5,3.11677488989592,64,2963.63636363636,501.716534030403,22,3235.24942110317,1596,100,0,64,2.1
08-9UB2,16,37,64.2549998760223,6.65828966681813,6742,0.966872221425498,1.66013795348837,0.328396462224373,258,75.8990769230769,2.09220183290604,65,33.7962015503876,0.0145058044708216,258,47.047448244068,4119,0.748697916666667,0.0539958277365857,0.0334871868678459,60,733.022727272727,57.950430120036,31.3020141836595,88,82.4769230769231,5.52015537685448,65,14.5538461538462,3.27409705697029,65,3137.14285714286,597.002033975956,21,4710.00191887602,1606,100,0,65,1
08-9UB2,17,14,64.4579999446869,7.41003388078815,6578,0.95030338052586,1.36320356976744,0.12928777219507,258,84.1275,1.93047654286181,64,33.7752713178294,0.0169263692411708,258,28.3705180386116,4132,0.788165983606557,0.0569491125246893,0.0434513616971129,61,782.329268292683,46.6465710377671,28.5200817272391,82,76.984375,4.14227982430655,64,16.75,3.79640598628471,64,2720,218.424107893545,23,7036.4090387628,1611,100,0,64,4.2
08-9UB2,18,25,65.5460000038147,8.46389276862432,6815,0.962978663275399,2.77235601520912,0.229448233836445,263,78.1463636363636,2.14462593931446,66,33.8669581749049,0.0208929057615284,263,32.4354099509788,4202,0.812736742424242,0.0943686488662433,0.0439811886142596,66,840.333333333333,124.02206199492,150.650537388967,78,73.4545454545455,7.6945171652024,66,15.030303030303,1.75385024331916,66,3433.68421052632,898.518598869617,19,11617.1650683615,1639,100,0,66,4.1
08-9UB2,19,38,60.2300000190735,7.31890072669914,6416,0.981790359602142,2.63747460165975,0.222081302175594,241,84.7319672131147,4.57837155171724,61,33.8735684647303,0.0161414477267821,241,37.0806026215098,3861,0.849691901408451,0.0806885735819524,0.0721607286474338,71,850.549295774648,66.770136338335,60.5765159588622,71,71.6166666666667,5.59991424470256,60,15.7,2.40268211712082,60,3397.77777777778,937.528387369782,18,5728.97702883692,1506,100,0,60,3.1
08-9UB2,20,34,67.6810002326965,8.57949782318904,7089,0.955390835579515,1.35109777121771,0.132062616089207,271,75.9036764705883,4.01101167288692,68,33.7562730627306,0.0143159834732792,271,49.8204789106281,4339,0.841666666666667,0.057991093747428,0.0484644321677746,30,815.493975903614,96.173797645261,86.5175154971806,83,73.4179104477612,4.43863633758314,67,15.5820895522388,0.923584153625745,67,3680,1047.32463395496,19,6565.20515883302,1692,97.5373134328358,4.43241625810571,67,5
08-9UB2,21,27,63.7679998874664,9.9783175073004,6839,0.978537702103305,1.05925326666667,0.0681355529388508,255,79.899375,2.85058438731541,64,33.7004705882353,0.0209746312283297,255,40.2772879256693,4088,0.834929435483871,0.0839584896365647,0.0594477552520547,62,813.653846153846,84.1561361087547,45.969922408394,78,74.703125,7.94161170220324,64,15.734375,1.88765570155658,64,3102,1004.03187200407,20,10319.469288837,1594,100,0,64,6.5
08-9UB2,22,4,65.4100000858307,11.0100614927676,6626,0.92684291509302,0.870923832061069,0.0458929421654359,262,79.4687692307692,2.14389650205845,65,33.6648854961832,0.0127075210609832,262,50.4949986098874,4193,0.807904411764706,0.0520719002669387,0.0502152549367043,68,797.19512195122,51.5491947762883,37.233497463082,82,75.8,4.61722319148642,65,15.3076923076923,3.28311531229808,65,2926.95652173913,652.006935145832,23,2889.90581947636,1635,100,0,65,7.1
08-9UB2,23,33,60.8090000152588,10.4882105320141,6595,1,0.799954491803279,0.028175982313035,244,84.0870491803279,2.17161180099198,61,33.6464754098361,0.0137838774519026,244,42.453622411182,3898,0.767393867924528,0.0703232081428418,0.0409404358900267,53,795.324675324675,64.6049618345464,50.4109428387799,77,77.0491803278689,6.73158284880111,61,18.1639344262295,3.44567520170262,61,2702.60869565217,303.393195095143,23,4307.10714637117,1521,100,0,61,5.1
08-9UB2,24,40,67.2939999103546,9.97061712751339,7226,0.987428259087182,0.840310628252788,0.0369747230731875,269,78.0725,2.37127044165415,68,33.6040520446097,0.0158447777751613,269,32.5065865075518,4314,0.820101351351351,0.0904174836571366,0.0584061637650807,74,798.75,95.8148157419438,43.9199710316581,84,75.6716417910448,9.06940922151592,67,15.865671641791,2.71859769103462,67,3209.52380952381,878.353437919362,21,2614.57526230379,1682,100,0,67,5
08-9UB2,25,11,64.7159998416901,11.4774651757798,6959,1,0.938453077220077,0.182929200920966,259,81.72625,2.49831212863075,64,33.5856756756757,0.0147270721494794,259,52.925004091015,4148,0.794560185185185,0.0634262955348787,0.0544077667077505,81,797.148148148148,54.4293374732577,47.6033087085341,81,75.9692307692308,4.89888134797511,65,16.4923076923077,3.01103738831755,65,2914.78260869565,718.109067211289,23,2371.34982730921,1617,100,0,65,7
08-9UB2,26,8,64.8699998855591,8.17912620293141,6834,0.968125796855079,1.23196369230769,0.0887013076929409,260,81.5384615384615,2.45422036422035,65,33.5391538461538,0.0147846636277679,260,54.0302323859233,4158,0.793619791666667,0.0734254419603223,0.043409134902204,72,801.938271604938,73.0062233099022,41.6252627619334,81,75.7076923076923,6.2717697784474,65,19.6153846153846,2.64983671485332,65,3112.38095238095,910.965996960944,21,5260.80205613275,1621,100,0,65,7
08-9UB2,27,20,64.1749999523163,9.99536502189894,6762,0.973369799913632,1.14883978294574,0.079496976316085,258,83.21171875,4.12638492564175,64,33.5216666666667,0.0188361079415704,258,49.5522375994065,4113,0.827566964285714,0.043050404917855,0.0511195550844981,28,779.865853658537,85.8751264229122,45.8491891765618,82,78.4375,8.84769721632392,64,16.46875,2.83945417290014,64,2972.72727272727,423.389742977879,22,3183.58938834927,1604,100,0,64,7
08-9UB2,28,2,64.4800000190735,10.9737502725896,6842,0.986447520184544,1.06048714671815,0.0702004008677026,259,81.4607692307692,3.02390543611047,65,33.5213513513513,0.0191107570490667,259,57.7783597380705,4133,0.839725378787879,0.0828299875431161,0.0709440123239121,66,831.012820512821,76.330194122631,58.2260485287532,78,73.6923076923077,6.49981508612715,65,17.9538461538462,2.60066559527778,65,2923.47826086957,526.934606048401,23,3556.07543106325,1612,100,0,65,3
08-9UB2,29,18,64.2639999389648,11.7466645046212,6911,0.996108388584606,1.1941261744186,0.156016767339634,258,79.7492307692308,2.88111648697835,65,33.5117441860465,0.0204725417588143,258,38.2766917159281,4120,0.80625,0.0839998398883345,0.0466436802942521,80,811.291139240506,78.3208640209822,48.0028044052556,79,75.359375,7.0132916608847,64,17.0625,2.98075839928711,64,2873.04347826087,354.226876227507,23,2368.7291847035,1606,100,0,64,5
08-9UB2,30,19,65.1080000400543,7.95746821711171,6974,0.982253521126761,1.60610937547893,0.1470544507802,261,82.6063076923077,2.11819245557295,65,33.5486590038314,0.0219991827943497,261,56.7032220638236,4173,0.781044407894737,0.0620553674281664,0.0402223637006413,76,787.638554216867,54.4208035708667,44.262245101931,83,76.9848484848485,5.51499333772504,66,17.4242424242424,3.10860149639726,66,2806.95652173913,238.068645230524,23,3544.35331783214,1628,100,0,66,6.5
08-9UB2,31,32,64.0449998378754,11.7250459491194,6687,0.959948320413437,1.4298606953125,0.109707208087356,256,79.55484375,1.71214150893756,64,33.554609375,0.0166345892291801,256,35.4087695491263,4105,0.811129385964912,0.0772992466297502,0.0614092885925772,57,780.451219512195,95.5523452224318,47.4806003269483,82,78.515625,10.1590403675975,64,13.125,2.08927723509336,64,3286.31578947368,971.346205167034,19,2222.63457046175,1601,100,0,64,5
08-9UB2,32,24,56.5970001220703,8.41182693782367,5730,0.920186285530753,2.31677545814978,0.35665755286445,227,77.1991071428571,1.53478133092836,56,33.5331718061674,0.018352051265767,227,37.390041326264,3628,0.816685267857143,0.0707289480045903,0.056611841236457,56,797.30985915493,74.0745939768624,40.2201086877838,71,76.0350877192982,7.025374703481,57,16.0350877192982,2.85960107283155,57,3091.11111111111,841.936765048225,18,2707.08074087425,1415,100,0,57,3.1
08-9UB2,33,1,64.7839999198914,10.198666619674,6937,0.988458250213736,2.34790994230769,0.169980760081819,260,80.8586153846154,1.94371573677444,65,33.563,0.0187299442287172,260,36.4752033186056,4152,0.780120481927711,0.0662815198999896,0.0488043005901894,83,788.463414634146,63.4194726340734,46.8401537145215,82,77.0769230769231,5.31009560974333,65,17.2923076923077,3.43567259118883,65,2871.30434782609,630.261881701322,23,2542.40351573206,1619,100,0,65,5
08-9UB2,34,5,65.1119999885559,8.79792485889921,7099,0.989407665505227,2.91074150957854,0.234488492049144,261,79.0803076923077,2.00335731432167,65,33.5791954022988,0.0136340967491243,261,41.8679477632261,4174,0.819034090909091,0.0491068695606545,0.0614789278112006,55,797.390243902439,58.622617321885,38.865230899089,82,75.8923076923077,5.79634334333691,65,14.7538461538462,2.93699872973441,65,3290.52631578947,1504.17741892449,19,2876.61972766095,1628,100,0,65,5
08-9UB2,35,29,65.297000169754,9.56164144899717,7027,0.988743492331504,3.31164204961832,0.322451311416623,262,84.874696969697,3.41030980758097,66,33.5973282442748,0.0213284630748564,262,28.7013937234824,4186,0.785300925925926,0.0747627178190737,0.0489451722114909,81,796.463414634146,114.441552835309,138.638708007629,82,77.3484848484848,7.11767555886789,66,17.0606060606061,2.93456214990499,66,3076.19047619048,919.730809478927,21,2227.71953378273,1632,100,0,66,5
08-9UB2,36,13,64.2889997959137,11.0705968998698,6905,0.982079362821789,3.22891272762646,0.258155388017422,257,89.3981538461538,6.84878317027642,65,33.6248638132296,0.0180299483350607,257,63.1759953642835,4121,0.827302631578947,0.0780335722331603,0.0504966651814201,19,756.435294117647,71.4430254283295,31.4784506788828,85,79.53125,7.43216678866959,64,12.28125,1.93110503770941,64,4045,1873.7128915605,16,2282.93162887192,1607,100,0,64,6.5
08-9UB2,37,17,61.9349999427795,9.22801007774047,6685,0.983377463959988,2.77543854032258,0.190018767506088,248,75.3479032258064,0.681139684036798,62,33.6625,0.0168645472950089,248,29.1330085326498,3970,0.790501644736842,0.0549133806303962,0.0519477401657987,76,791.012820512821,48.7680685369485,37.8990456652626,78,76.5483870967742,4.05566763663483,62,16.3548387096774,2.86926490953693,62,3244.21052631579,922.98017186764,19,3267.46760556402,1549,100,0,62,5.8
08-9UB2,38,9,64.8339998722076,9.28672254166109,6947,0.992712203486711,2.70848252123552,0.150986919927535,259,79.6796875,2.11840233955267,64,33.6620077220077,0.00935020303141248,259,37.1744393994611,4156,0.821993670886076,0.0676197208077722,0.0450012798072996,79,827.589743589744,58.1885506427805,43.1657933355303,78,73.2,5.46637448406163,65,14.8461538461538,3.04256660378397,65,4242.5,2154.43573432426,16,2039.44695798572,1621,100,0,65,6.2
09-9UDP,1,26,62.0989999771118,7.26109511741497,6431,0.962004487658938,0.296777883064516,0.0109413623387755,248,67.2140322580645,1.82324018873751,62,31.6898387096775,0.0400805640292554,248,45.2697918519914,3980,0.913461538461538,0.0547304089905167,0.0634690500362184,13,892.594202898551,106.069250248375,146.341914304662,69,68.241935483871,3.07653991227727,62,16.2903225806452,0.91233975505953,62,3444.44444444444,927.071430855518,18,6547.92416689503,1552,100,0,62,7.5
09-9UDP,2,3,68.4340000152588,8.12060271334951,7257,1,0.322443430656935,0.00291575273374329,274,79.4210294117647,2.74060083820062,68,31.5232846715328,0.0200771219662706,274,22.344838701716,4385,0.859375,0.0800318755430683,0.0731897023956561,18,860.73417721519,65.8280021588427,31.7140670883135,79,70.3970588235294,5.48033037974126,68,20.8529411764706,2.81925525194024,68,3114.54545454545,734.903474534661,22,6974.48590305958,1710,100,0,68,6.4
09-9UDP,3,20,63.8619999885559,8.1505138184504,6892,1,0.34620054296875,0.0111021630108603,256,66.8565625,3.90287977469385,64,31.414765625,0.0180832429743831,256,38.3984768847799,4093,NaN,NaN,NaN,0,911.528571428571,76.3729828223043,46.1567901327889,70,66.484375,5.6004313538518,64,17.75,1.86870636860463,64,3194,1447.30748197072,20,6891.40747682731,1596,100,0,64,8.5
09-9UDP,4,25,65.5280001163483,8.51977308970112,6988,1,0.39059111026616,0.0142845342561554,263,79.9930303030303,3.17993660783306,66,31.4199619771863,0.0140744503196749,263,26.3117138774349,4199,0.890625,NaN,NaN,1,867.381578947368,96.0792682605029,46.4379155432283,76,69.5151515151515,7.0607091041632,66,19,2.78457288535354,66,3292,1198.11079357637,20,7288.91432516339,1638,100,0,66,5.2
09-9UDP,5,7,63.6879999637604,7.82007735454255,6851,0.99679906882002,0.442665478431372,0.0144748521678811,255,74.2021875,2.37002676881942,64,31.3569019607843,0.0167252636738293,255,25.2731971010014,4082,0.959077380952381,0.0635605699828724,0.0825319540390266,21,901.661971830986,95.1804217056026,34.4746283518764,71,67.171875,8.17769845275105,64,17.5,1.65231919741881,64,3030.47619047619,1069.64702678256,21,6037.76835570147,1592,100,0,64,3.8
09-9UDP,6,4,65.5759999752045,7.79141150177323,6997,1,0.466511251908397,0.0113038210942555,262,90.754696969697,6.52237055057957,66,31.2565648854962,0.0174096900118487,262,19.3190432541251,4202,0.96875,0.0716838815149376,0.0798179662613327,22,897.342465753425,104.956633793053,43.68892562449,73,67.5606060606061,8.23151315723961,66,19.6363636363636,2.45348332368093,66,3144.7619047619,1108.04160141946,21,6334.31991873624,1639,100,0,66,6.1
09-9UDP,7,10,64.7290000915527,7.3214538608083,7009,1,0.406273976833977,0.0170790364357333,259,72.7136923076923,2.61585703524603,65,31.1279922779923,0.0272055044985974,259,17.6278428947582,4148,0.921875,0.073543550676819,0.0899677760153814,27,899.236111111111,64.823594438531,38.4275429391215,72,67.3692307692308,4.65218104350405,65,18.4923076923077,1.82108378550965,65,3376.84210526316,1803.46904181783,19,4810.60877514844,1618,100,0,65,2.1
09-9UDP,8,21,67.2350001335144,7.97941214418153,7206,1,0.42010747037037,0.0236842659640843,270,72.6870149253731,3.03506777665092,67,31.0534074074074,0.0174237782646459,270,31.0734848723051,4309,0.97265625,0.0878937251437374,0.0943063847065965,8,886.710526315789,88.5420902982642,49.9395634742636,76,68.8059701492537,5.77937504739824,67,18.2238805970149,3.15662312626713,67,3362,1220.21395880524,20,4935.12816667403,1681,100,0,67,3
09-9UDP,9,36,64.6360001564026,7.35487688746031,6989,1,0.463534833976834,0.0179862627903145,259,77.1595384615385,3.02293288399757,65,30.9834362934363,0.0202734885156887,259,25.8956489282493,4142,0.919642857142857,0.0228726579597312,0.0337538578042076,7,901.859154929577,52.0574670847099,38.6607959418471,71,67.7230769230769,5.29300154776242,65,16.9076923076923,1.50751323504842,65,3062.85714285714,1239.9078306759,21,4411.44124436342,1616,100,0,65,1.4
09-9UDP,10,9,64.7620000839233,7.38918821025382,6919,1,0.456865474903475,0.0154134356746589,259,71.0746153846154,2.58572044900152,65,30.9079922779923,0.0139428490960299,259,9.32995282619554,4150,0.98984375,0.0891519057250483,0.0706997741100389,20,908.43661971831,84.1769789354321,37.0295248995408,71,66.5076923076923,6.30258646540023,65,18.7384615384615,2.3801058476786,65,3013.33333333333,1244.65791819814,21,4413.88307366208,1619,100,0,65,7.2
09-9UDP,11,15,64.6189999580383,8.50676668100633,6939,1,0.4662638996139,0.0340413882755436,259,91.3358461538461,4.90745666445069,65,30.8425096525096,0.0180727133680439,259,38.8695662951385,4141,NaN,NaN,NaN,0,849.802631578947,86.7734244626917,48.1406273328464,76,71.1076923076923,6.67580303438067,65,19.5538461538462,2.97925519861282,65,2916.36363636364,980.876893661728,22,6737.2155125428,1615,100,0,65,5.1
09-9UDP,12,29,65.2779998779297,7.26708661535446,7011,1,0.450715302681992,0.0156864820399222,261,107.440923076923,11.3575387577862,65,30.7650957854406,0.0214227238593454,261,15.5544752471039,4183,0.908854166666667,0.115842981462697,0.18814991529363,6,864.666666666667,68.6547046346313,35.7130076991412,75,69.8307692307692,5.77594481115761,65,19.9538461538462,2.09486551798953,65,3020.95238095238,1412.77706932801,21,4577.35874072543,1632,100,0,65,4.2
09-9UDP,13,24,56.555999994278,8.06554371069526,6130,1,0.242334623893805,0.0306648664102771,226,79.4055357142857,3.40902647774611,56,30.6390265486726,0.0154324104415158,226,24.6445435006351,3624,0.9140625,0.0331456303681194,0.046875,2,857.742424242424,109.681540499486,37.6418343377112,66,70.9649122807018,9.01776998146418,57,19.1578947368421,3.16673262033943,57,3044.21052631579,797.874369040596,19,9390.84011180032,1414,100,0,57,8.2
09-9UDP,14,13,63.9039998054504,8.8779342192431,6806,0.995029239766082,0.25252025390625,0.0531395363940493,256,116.66125,5.35415652213232,64,30.58625,0.0161852026343112,256,49.5952987855003,4095,0.961647727272727,0.0782385538390005,0.0734541204596447,11,862.066666666667,93.6154199202612,37.9152682644811,75,70.265625,7.35978387255996,64,18.15625,2.18376949478401,64,3226,1271.7679364611,20,4881.34793530288,1597,100,0,64,4.7
09-9UDP,15,2,64.510999917984,7.39388144612888,6352,0.920046349942063,0.361654884169884,0.0144698254847864,259,81.6453846153846,8.04495087712688,65,30.4711583011583,0.0175265589883175,259,42.2147816147756,4134,0.981026785714286,0.0494784135763009,0.0618961211037679,14,888.780821917808,108.948541188457,42.9919243062643,73,68.46875,9.06759230218971,64,17.71875,3.33556472932127,64,3384,960.385887355483,20,6383.70029890264,1613,100,0,64,5.7
09-9UDP,16,30,64.9099998474121,8.37705886239454,6908,0.989543045408967,0.338978315384615,0.0307158963811044,260,78.35,5.44002010566138,65,30.4349230769231,0.0234560676624853,260,26.8713359263586,4159,0.969951923076923,0.114546905631464,0.110024115491029,13,915.619718309859,113.173490863387,39.2370087690545,71,66.109375,8.27334059993541,64,18.40625,0.811010539535767,64,3085.71428571429,1314.61238176343,21,3828.52753612971,1622,100,0,64,2.7
09-9UDP,17,11,64.460000038147,8.21519953063911,6855,0.985480161012076,0.363622517374517,0.0583854705667851,259,88.86859375,4.60157801338776,64,30.3284555984556,0.0150686078767096,259,47.0817690936548,4131,NaN,NaN,NaN,0,882.095890410959,73.8378787885176,48.2507915882101,73,68.5625,5.09551623628909,64,19.046875,1.78556546998956,64,3192.38095238095,957.715535855531,21,5615.98557785182,1611,100,0,64,8.6
09-9UDP,18,27,63.6410000324249,7.52078533010794,6829,1,0.365324282352941,0.037501060884189,255,66.2101587301587,3.49873594319503,63,30.2184705882353,0.0263907292099946,255,46.7800959225701,4079,0.99609375,0.145066465455222,0.126329280735119,20,888.138888888889,74.1863480769984,42.4900982665871,72,67.9523809523809,5.08770995898234,63,18.5238095238095,1.908023321501,63,3458.94736842105,861.664376121018,19,4218.17216665186,1591,100,0,63,7.3
09-9UDP,19,17,62.2619998455048,8.84766104633216,6655,0.989738251041047,0.387410317269077,0.0143788655116795,249,86.4922580645161,3.6568029660225,62,30.0814056224899,0.0207527720776112,249,45.2574069032392,3989,0.83984375,0.0899726078749753,0.0860032366423669,28,859.958904109589,95.2347156526915,30.9280078030685,73,70.3333333333333,8.02616688330798,63,17.8412698412698,0.953877472458008,63,3371.11111111111,1631.73270911229,18,4394.20774313989,1557,100,0,63,5.2
10-9UHM,1,19,64.7060000896454,8.41133996703038,6953,0.97599663110612,13.0821798532819,0.203912344164384,259,108.98046875,1.04911516714257,64,31.9737065637066,0.0296256814818225,259,39.4957150972492,4147,0.540865384615385,0.0279777126271279,0.0233853586673371,26,529.27868852459,22.8231658066836,20.6843654774956,122,113.646153846154,3.23279469475894,65,15.9230769230769,1.1223258816473,65,4027.5,1495.78741805111,16,5011.11031614701,1617,100,0,65,6.9
10-9UHM,2,9,64.2929999828339,14.0167773073182,6827,0.964401751659839,9.21602418604651,0.355642465965245,258,117.398923076923,1.80253651408658,65,32.0427131782946,0.0323105538162631,258,39.082143782094,4121,0.541875,0.0585885414351646,0.0381401523850959,25,528.743801652893,38.9988309494913,28.0074394878694,121,113.46875,6.21561972545205,64,17.375,0.967733401566742,64,4341.33333333333,960.341209203915,15,4250.35198865815,1607,100,0,64,7.7
10-9UHM,3,6,64.8210000991821,7.42982180665259,6486,0.923011242350932,5.3294933,0.214348004205666,260,112.751384615385,1.43569547271858,65,31.915076923077,0.0185682983814266,260,41.0900237860326,4154,0.569650423728814,0.0402379223932381,0.026354088580594,59,561.208695652174,42.0399758901591,21.4373833176713,115,108.107692307692,6.89003600526486,65,15.7076923076923,2.0134165375913,65,4072.5,1051.7509210835,16,3524.76973458034,1621,100,0,65,6.7
10-9UHM,4,21,67.566999912262,7.11402268094621,7288,0.985664051934001,3.87808892222222,0.0520996093196637,270,96.604776119403,1.8186053249416,67,31.9059259259259,0.0512127466750407,270,38.0153359433591,4331,0.57001582278481,0.0516323075130488,0.0279732372671653,79,564.958333333333,47.7316370311083,20.2474191736448,120,107.238805970149,6.64258427311377,67,16.5074626865672,1.46031476814811,67,4685.71428571429,1390.59320095758,14,2998.50905031387,1689,100,0,67,5.5
10-9UHM,5,13,64.1299998760223,7.13608485916861,6873,0.99163179916318,3.58263752734375,0.119033748913488,256,100.29296875,1.45736626949178,64,31.9628515625,0.0291459047252764,256,22.737702009198,4111,0.565748762376238,0.0428658900491168,0.0271533549952856,101,563.184210526316,41.8927340288917,28.1472109937319,114,106.875,6.25261849909605,64,12.953125,0.722203143826154,64,3724.44444444444,1213.40659119504,18,2437.18675135955,1603,100,0,64,6
10-9UHM,6,5,65.1440000534058,11.8809808512898,6788,0.958621663606835,3.37972950574713,0.131159374931289,261,104.697272727273,3.00188584083382,66,32.1150574712644,0.0265245994627211,261,66.8144768562379,4176,0.5453125,0.0247179603548222,0.027861119632554,40,545.319327731092,25.2981987611998,20.7489023601862,119,110.69696969697,4.59085947029428,66,18.1666666666667,0.776250025806185,66,5190,1637.12608499829,12,2524.03353275249,1628,100,0,66,6.2
10-9UHM,7,31,63.7110002040863,7.01640240534803,6891,0.997827975673328,2.84239240625,0.157466667463977,256,97.59734375,2.15332687761637,64,32.11390625,0.0431547034675537,256,18.7463508487933,4084,0.584405637254902,0.0432688694181914,0.0260622855667034,102,587.293577981651,37.1857954641518,17.9017379665278,109,102.84126984127,5.75355808344364,63,12.3333333333333,1.34404301006449,63,4571.42857142857,1704.90178892806,14,2757.51350518149,1593,100,0,63,5.7
10-9UHM,8,25,65.319000005722,8.73263014262405,6910,0.978337816791732,2.36581165648855,0.148818004119757,262,94.505606060606,5.69494867371695,66,32.0125954198473,0.0279185401329723,262,35.4632862150202,4187,0.54296875,0.028724639075997,0.0286852632671151,28,550.025210084034,40.8557740634038,31.7707625960128,119,108.784615384615,5.40396933886422,65,15.3692307692308,1.37578648835437,65,4597.14285714286,869.937474069952,14,3156.55402178798,1633,100,0,65,6
10-9UHM,9,12,65.0009999275208,6.91118404658386,6825,0.973192642235848,2.1103126743295,0.204168536266425,261,106.177076923077,2.85606083787012,65,32.0062835249042,0.0160402161836927,261,34.0329618645717,4166,0.609987745098039,0.0330661009844482,0.0257694101601104,51,589.818181818182,40.7672250572163,13.3013760756016,110,102.323076923077,7.48980075733763,65,15.8615384615385,1.95157727137663,65,4488.57142857143,664.933277657438,14,3685.39202947057,1625,100,0,65,6.1
10-9UHM,10,8,64.4930000305176,7.23670806122795,6718,0.960674960674961,3.00868418217054,0.230079373356717,258,107.22078125,3.33320966660479,64,32.1810465116279,0.029232560191208,258,32.4241115403076,4134,0.586834016393443,0.0573762105959406,0.0260676953255046,61,583.522522522523,54.3081856958878,21.1649366985717,111,103.390625,9.2386647621451,64,16.0625,1.86764430181318,64,4984.61538461538,1919.96794845042,13,2237.13822016528,1613,100,0,64,6
10-9UHM,11,7,63.710000038147,6.8229567854503,6844,1,2.29672238823529,0.0865418919040993,255,102.999206349206,1.26308672292779,63,32.1907843137255,0.027767534522253,255,31.782221537973,4084,0.612326388888889,0.0473637004195337,0.0303595032601366,90,610.384615384615,36.4548684117581,19.3122024908746,104,99.3333333333333,6.52291247042103,63,14.7936507936508,2.91911790785488,63,3689.41176470588,1358.27312509412,17,2716.60205874903,1593,100,0,63,5.8
10-9UHM,12,10,64.316999912262,10.884653234419,6074,0.86684743827601,2.75521507392996,0.174343296013027,257,106.6478125,1.61576211194004,64,32.2070428015564,0.0292986060610505,257,65.3170011473101,4123,0.541341145833333,0.0473150426154482,0.0175064103001085,48,564.684210526316,43.811809090049,15.7221449143545,114,106.859375,7.7128365224619,64,15.640625,1.04451990186728,64,5366.15384615385,1661.15190185174,13,4421.36459141863,1607,100,0,64,5.7
10-9UHM,13,36,64.6600000858307,6.93937244312823,6822,0.981865284974093,1.98709989189189,0.0980498301145897,259,98.3587692307692,1.83808282227392,65,32.141583011583,0.022313044577937,259,22.5127799297571,4145,0.603326612903226,0.0365737233436533,0.0258085124301788,93,595.761467889908,40.5688484491736,17.0516644131668,109,101.461538461538,6.92160775009346,65,16.3384615384615,3.56316626698136,65,4176,1289.76631327429,15,2292.03799504654,1617,100,0,65,5.8
10-9UHM,14,37,63.9649999141693,8.05968518898984,6755,0.975169626100765,1.70317596875,0.097227660861158,256,99.126875,1.30258214255195,64,32.0815625,0.0169167511830218,256,29.0299599184208,4100,0.592507102272727,0.0451503608565001,0.0194637843407203,88,585.816513761468,48.9737581162596,23.5259903558218,109,103.484375,8.71049756656546,64,16,1.48002573980191,64,4210.66666666667,1378.48502073144,15,2512.9304626918,1599,100,0,64,5.4
10-9UHM,15,38,59.805999994278,8.79786665708246,6268,0.946970841516845,1.39753512083333,0.078265349657017,240,110.4485,2.2620912965436,60,32.103,0.0262144359603574,240,45.1588990882366,3833,0.588107638888889,0.0419516851438501,0.0613737816288729,36,578.961165048544,37.5750027279028,13.451802124331,103,103.966666666667,5.96875101680117,60,17.8666666666667,3.41217494468079,60,4122.85714285714,1001.59433344604,14,3624.08683140265,1495,100,0,60,5.6
10-9UHM,16,2,64.4570000171661,6.87396596515562,6875,0.974071975063757,1.68364926356589,0.0713319833448832,258,108.898153846154,1.89729897840629,65,31.9321705426357,0.0525603042992633,258,36.7437673937176,4132,0.586206896551724,0.0520942363382696,0.0255724090120304,29,576.9375,34.6587693490809,10.2829343447646,112,104.140625,6.21536035681596,64,16.015625,1.17503377188886,64,4237.5,1445.87459115005,16,3385.26169543244,1612,100,0,64,5.6
10-9UHM,17,27,63.7860000133514,6.89226582486395,6710,0.952448545067424,1.54822616470588,0.0717012632451969,255,101.53046875,2.34394690178191,64,31.8626274509803,0.0261235411259129,255,44.2352293077294,4089,0.58765243902439,0.0502530278331807,0.0249511240979239,41,586.587155963303,41.2409835284286,15.0975224850035,109,103.09375,6.70161968103281,64,17.15625,1.59581546054893,64,4000,726.489274983923,16,3036.65130187533,1595,100,0,64,5.5
10-9UHM,18,1,64.3430001735687,7.50210757211289,6917,0.976150155235676,2.02766126744186,0.0932328046930691,258,108.4025,2.14179645706404,64,31.833488372093,0.0189675603796584,258,49.3980865559483,4124,0.571986607142857,0.0346368618417915,0.041449084674699,28,584.345454545455,44.5609440142696,16.5631956319209,110,103.484375,6.88682244672377,64,16.859375,0.906190132122148,64,3628.88888888889,1400.82701996688,18,2566.03690321814,1609,100,0,64,5.4
10-9UHM,19,29,65.164999961853,12.8998267412364,6317,0.890345313601128,1.66025136398467,0.0601540177011165,261,82.000303030303,3.5098801073966,66,31.7838697318008,0.0430291301544759,261,48.8791079926749,4177,0.604817708333333,0.0605117103646811,0.0305631029326141,24,585.711711711712,40.373120533207,19.2988459381761,111,102.723076923077,6.83627203851744,65,18.7846153846154,1.28077500576199,65,3568.88888888889,1518.36169018525,18,3768.08435505314,1629,100,0,65,6.5
10-9UHM,20,4,65.2359998226166,11.6643838582573,6490,0.919523944460187,2.4055273908046,0.174866775755102,261,91.902,3.05851843218248,65,31.2071647509579,0.0227952353075413,261,52.3848194308388,4182,0.619485294117647,0.0190896774683489,0.0217490795423048,17,613.490566037736,24.9926637933229,14.2458013864737,106,97.6307692307692,3.23346384880649,65,14,1.70477271212323,65,3832.94117647059,1302.24692697796,17,4668.87783946449,1631,100,0,65,7.1
10-9UHM,21,18,64.5260000228882,6.76195343570755,6900,0.968149291426968,2.29377894573643,0.117736791383332,258,110.783538461538,4.37392359285732,65,31.3511627906976,0.0313664895159674,258,21.5719448753953,4136,0.632512019230769,0.05955776700027,0.042085820640919,52,642.178217821782,45.6618869604847,25.8178233009679,101,94.40625,6.2986991602323,64,14.953125,1.79443308021366,64,4192.5,1446.37247392687,16,3429.11177930486,1613,100,0,64,7.4
10-9UHM,22,11,64.4570000171661,11.9685327308591,6857,0.97014714204867,1.7527490503876,0.116760729905127,258,101.17984375,3.10074670586434,64,31.421007751938,0.028553859579259,258,51.2758748795489,4131,0.638392857142857,0.0797359942312232,0.0456101038753568,49,646.86,78.3247603303584,32.0910950863068,100,94.0615384615385,9.34390998705327,65,15.4461538461538,1.18625947349707,65,3862.5,1092.12636631481,16,4253.98705770253,1612,100,0,65,6.3
10-9UHM,23,14,64.1909999847412,7.70078563098321,6727,0.948667324777888,1.60238223346303,0.0696953957375075,257,97.6615384615385,4.13066891933423,65,31.4791828793774,0.0259151563904082,257,39.3208726466904,4114,0.618055555555556,0.0496633296719276,0.0223085471072964,27,631.823529411765,47.2814224218329,21.1963942384754,102,95.3125,6.84261854639206,64,22.90625,4.43907165326909,64,3727.05882352941,700.033612638371,17,5414.05552253067,1605,100,0,64,7
